#      z (A) rho (1e-6/A2) irho (1e-6/A2)
-162.91199905   6.06462035   0.00001299
-162.81199905   6.06460375   0.00001306
-162.71199905   6.06458705   0.00001314
-162.61199905   6.06457026   0.00001322
-162.51199905   6.06455337   0.00001330
-162.41199905   6.06453640   0.00001338
-162.31199905   6.06451933   0.00001346
-162.21199905   6.06450216   0.00001355
-162.11199905   6.06448490   0.00001363
-162.01199905   6.06446755   0.00001371
-161.91199905   6.06445010   0.00001379
-161.81199905   6.06443255   0.00001388
-161.71199905   6.06441491   0.00001396
-161.61199905   6.06439717   0.00001404
-161.51199905   6.06437933   0.00001413
-161.41199905   6.06436140   0.00001421
-161.31199905   6.06434336   0.00001430
-161.21199905   6.06432523   0.00001438
-161.11199905   6.06430700   0.00001447
-161.01199905   6.06428867   0.00001456
-160.91199905   6.06427024   0.00001465
-160.81199905   6.06425170   0.00001473
-160.71199905   6.06423307   0.00001482
-160.61199905   6.06421433   0.00001491
-160.51199905   6.06419549   0.00001500
-160.41199905   6.06417655   0.00001509
-160.31199905   6.06415751   0.00001518
-160.21199905   6.06413836   0.00001527
-160.11199905   6.06411911   0.00001536
-160.01199905   6.06409975   0.00001545
-159.91199905   6.06408029   0.00001555
-159.81199905   6.06406072   0.00001564
-159.71199905   6.06404104   0.00001573
-159.61199905   6.06402126   0.00001583
-159.51199905   6.06400137   0.00001592
-159.41199905   6.06398137   0.00001601
-159.31199905   6.06396127   0.00001611
-159.21199905   6.06394105   0.00001621
-159.11199905   6.06392073   0.00001630
-159.01199905   6.06390030   0.00001640
-158.91199905   6.06387975   0.00001650
-158.81199905   6.06385910   0.00001659
-158.71199905   6.06383833   0.00001669
-158.61199905   6.06381745   0.00001679
-158.51199905   6.06379646   0.00001689
-158.41199905   6.06377535   0.00001699
-158.31199905   6.06375414   0.00001709
-158.21199905   6.06373280   0.00001719
-158.11199905   6.06371136   0.00001729
-158.01199905   6.06368979   0.00001740
-157.91199905   6.06366812   0.00001750
-157.81199905   6.06364632   0.00001760
-157.71199905   6.06362441   0.00001771
-157.61199905   6.06360238   0.00001781
-157.51199905   6.06358023   0.00001792
-157.41199905   6.06355797   0.00001802
-157.31199905   6.06353558   0.00001813
-157.21199905   6.06351308   0.00001823
-157.11199905   6.06349045   0.00001834
-157.01199905   6.06346770   0.00001845
-156.91199905   6.06344484   0.00001856
-156.81199905   6.06342185   0.00001867
-156.71199905   6.06339874   0.00001878
-156.61199905   6.06337550   0.00001889
-156.51199905   6.06335214   0.00001900
-156.41199905   6.06332866   0.00001911
-156.31199905   6.06330505   0.00001922
-156.21199905   6.06328132   0.00001933
-156.11199905   6.06325746   0.00001945
-156.01199905   6.06323347   0.00001956
-155.91199905   6.06320936   0.00001967
-155.81199905   6.06318512   0.00001979
-155.71199905   6.06316075   0.00001991
-155.61199905   6.06313625   0.00002002
-155.51199905   6.06311162   0.00002014
-155.41199905   6.06308686   0.00002026
-155.31199905   6.06306197   0.00002037
-155.21199905   6.06303695   0.00002049
-155.11199905   6.06301180   0.00002061
-155.01199905   6.06298651   0.00002073
-154.91199905   6.06296109   0.00002085
-154.81199905   6.06293554   0.00002097
-154.71199905   6.06290985   0.00002109
-154.61199905   6.06288403   0.00002122
-154.51199905   6.06285807   0.00002134
-154.41199905   6.06283198   0.00002146
-154.31199905   6.06280575   0.00002159
-154.21199905   6.06277938   0.00002171
-154.11199905   6.06275287   0.00002184
-154.01199905   6.06272622   0.00002197
-153.91199905   6.06269944   0.00002209
-153.81199905   6.06267251   0.00002222
-153.71199905   6.06264545   0.00002235
-153.61199905   6.06261824   0.00002248
-153.51199905   6.06259089   0.00002261
-153.41199905   6.06256339   0.00002274
-153.31199905   6.06253576   0.00002287
-153.21199905   6.06250798   0.00002300
-153.11199905   6.06248005   0.00002313
-153.01199905   6.06245198   0.00002327
-152.91199905   6.06242376   0.00002340
-152.81199905   6.06239540   0.00002353
-152.71199905   6.06236689   0.00002367
-152.61199905   6.06233823   0.00002380
-152.51199905   6.06230942   0.00002394
-152.41199905   6.06228047   0.00002408
-152.31199905   6.06225136   0.00002422
-152.21199905   6.06222210   0.00002436
-152.11199905   6.06219269   0.00002449
-152.01199905   6.06216313   0.00002463
-151.91199905   6.06213342   0.00002478
-151.81199905   6.06210355   0.00002492
-151.71199905   6.06207353   0.00002506
-151.61199905   6.06204336   0.00002520
-151.51199905   6.06201302   0.00002535
-151.41199905   6.06198254   0.00002549
-151.31199905   6.06195189   0.00002564
-151.21199905   6.06192109   0.00002578
-151.11199905   6.06189013   0.00002593
-151.01199905   6.06185901   0.00002608
-150.91199905   6.06182773   0.00002622
-150.81199905   6.06179629   0.00002637
-150.71199905   6.06176469   0.00002652
-150.61199905   6.06173292   0.00002667
-150.51199905   6.06170100   0.00002683
-150.41199905   6.06166891   0.00002698
-150.31199905   6.06163665   0.00002713
-150.21199905   6.06160423   0.00002728
-150.11199905   6.06157165   0.00002744
-150.01199905   6.06153890   0.00002759
-149.91199905   6.06150598   0.00002775
-149.81199905   6.06147290   0.00002791
-149.71199905   6.06143964   0.00002806
-149.61199905   6.06140622   0.00002822
-149.51199905   6.06137263   0.00002838
-149.41199905   6.06133887   0.00002854
-149.31199905   6.06130493   0.00002870
-149.21199905   6.06127082   0.00002886
-149.11199905   6.06123654   0.00002903
-149.01199905   6.06120209   0.00002919
-148.91199905   6.06116746   0.00002935
-148.81199905   6.06113266   0.00002952
-148.71199905   6.06109768   0.00002969
-148.61199905   6.06106252   0.00002985
-148.51199905   6.06102719   0.00003002
-148.41199905   6.06099167   0.00003019
-148.31199905   6.06095598   0.00003036
-148.21199905   6.06092011   0.00003053
-148.11199905   6.06088406   0.00003070
-148.01199905   6.06084782   0.00003087
-147.91199905   6.06081141   0.00003104
-147.81199905   6.06077481   0.00003122
-147.71199905   6.06073802   0.00003139
-147.61199905   6.06070105   0.00003157
-147.51199905   6.06066390   0.00003174
-147.41199905   6.06062656   0.00003192
-147.31199905   6.06058903   0.00003210
-147.21199905   6.06055132   0.00003228
-147.11199905   6.06051341   0.00003246
-147.01199905   6.06047532   0.00003264
-146.91199905   6.06043704   0.00003282
-146.81199905   6.06039856   0.00003300
-146.71199905   6.06035989   0.00003318
-146.61199905   6.06032103   0.00003337
-146.51199905   6.06028198   0.00003355
-146.41199905   6.06024273   0.00003374
-146.31199905   6.06020329   0.00003393
-146.21199905   6.06016365   0.00003411
-146.11199905   6.06012381   0.00003430
-146.01199905   6.06008378   0.00003449
-145.91199905   6.06004354   0.00003468
-145.81199905   6.06000311   0.00003487
-145.71199905   6.05996248   0.00003507
-145.61199905   6.05992164   0.00003526
-145.51199905   6.05988061   0.00003546
-145.41199905   6.05983937   0.00003565
-145.31199905   6.05979792   0.00003585
-145.21199905   6.05975628   0.00003604
-145.11199905   6.05971442   0.00003624
-145.01199905   6.05967236   0.00003644
-144.91199905   6.05963009   0.00003664
-144.81199905   6.05958762   0.00003684
-144.71199905   6.05954493   0.00003705
-144.61199905   6.05950204   0.00003725
-144.51199905   6.05945893   0.00003745
-144.41199905   6.05941562   0.00003766
-144.31199905   6.05937208   0.00003787
-144.21199905   6.05932834   0.00003807
-144.11199905   6.05928438   0.00003828
-144.01199905   6.05924021   0.00003849
-143.91199905   6.05919582   0.00003870
-143.81199905   6.05915121   0.00003891
-143.71199905   6.05910639   0.00003913
-143.61199905   6.05906134   0.00003934
-143.51199905   6.05901608   0.00003955
-143.41199905   6.05897059   0.00003977
-143.31199905   6.05892489   0.00003999
-143.21199905   6.05887896   0.00004020
-143.11199905   6.05883281   0.00004042
-143.01199905   6.05878643   0.00004064
-142.91199905   6.05873983   0.00004086
-142.81199905   6.05869300   0.00004109
-142.71199905   6.05864594   0.00004131
-142.61199905   6.05859866   0.00004153
-142.51199905   6.05855114   0.00004176
-142.41199905   6.05850340   0.00004198
-142.31199905   6.05845542   0.00004221
-142.21199905   6.05840722   0.00004244
-142.11199905   6.05835878   0.00004267
-142.01199905   6.05831010   0.00004290
-141.91199905   6.05826119   0.00004313
-141.81199905   6.05821205   0.00004337
-141.71199905   6.05816266   0.00004360
-141.61199905   6.05811304   0.00004384
-141.51199905   6.05806319   0.00004407
-141.41199905   6.05801309   0.00004431
-141.31199905   6.05796275   0.00004455
-141.21199905   6.05791217   0.00004479
-141.11199905   6.05786134   0.00004503
-141.01199905   6.05781027   0.00004527
-140.91199905   6.05775896   0.00004551
-140.81199905   6.05770740   0.00004576
-140.71199905   6.05765560   0.00004600
-140.61199905   6.05760354   0.00004625
-140.51199905   6.05755124   0.00004650
-140.41199905   6.05749869   0.00004675
-140.31199905   6.05744589   0.00004700
-140.21199905   6.05739283   0.00004725
-140.11199905   6.05733953   0.00004750
-140.01199905   6.05728596   0.00004776
-139.91199905   6.05723215   0.00004801
-139.81199905   6.05717808   0.00004827
-139.71199905   6.05712375   0.00004852
-139.61199905   6.05706916   0.00004878
-139.51199905   6.05701431   0.00004904
-139.41199905   6.05695921   0.00004931
-139.31199905   6.05690384   0.00004957
-139.21199905   6.05684821   0.00004983
-139.11199905   6.05679232   0.00005010
-139.01199905   6.05673616   0.00005036
-138.91199905   6.05667974   0.00005063
-138.81199905   6.05662305   0.00005090
-138.71199905   6.05656610   0.00005117
-138.61199905   6.05650887   0.00005144
-138.51199905   6.05645138   0.00005171
-138.41199905   6.05639361   0.00005199
-138.31199905   6.05633558   0.00005226
-138.21199905   6.05627727   0.00005254
-138.11199905   6.05621868   0.00005282
-138.01199905   6.05615982   0.00005309
-137.91199905   6.05610069   0.00005338
-137.81199905   6.05604128   0.00005366
-137.71199905   6.05598159   0.00005394
-137.61199905   6.05592162   0.00005422
-137.51199905   6.05586137   0.00005451
-137.41199905   6.05580084   0.00005480
-137.31199905   6.05574002   0.00005508
-137.21199905   6.05567892   0.00005537
-137.11199905   6.05561754   0.00005567
-137.01199905   6.05555587   0.00005596
-136.91199905   6.05549391   0.00005625
-136.81199905   6.05543167   0.00005655
-136.71199905   6.05536914   0.00005684
-136.61199905   6.05530631   0.00005714
-136.51199905   6.05524319   0.00005744
-136.41199905   6.05517978   0.00005774
-136.31199905   6.05511608   0.00005804
-136.21199905   6.05505208   0.00005835
-136.11199905   6.05498779   0.00005865
-136.01199905   6.05492320   0.00005896
-135.91199905   6.05485831   0.00005926
-135.81199905   6.05479311   0.00005957
-135.71199905   6.05472762   0.00005988
-135.61199905   6.05466183   0.00006020
-135.51199905   6.05459573   0.00006051
-135.41199905   6.05452933   0.00006082
-135.31199905   6.05446262   0.00006114
-135.21199905   6.05439561   0.00006146
-135.11199905   6.05432829   0.00006178
-135.01199905   6.05426066   0.00006210
-134.91199905   6.05419272   0.00006242
-134.81199905   6.05412446   0.00006274
-134.71199905   6.05405590   0.00006307
-134.61199905   6.05398702   0.00006340
-134.51199905   6.05391783   0.00006372
-134.41199905   6.05384831   0.00006405
-134.31199905   6.05377849   0.00006438
-134.21199905   6.05370834   0.00006472
-134.11199905   6.05363787   0.00006505
-134.01199905   6.05356708   0.00006539
-133.91199905   6.05349597   0.00006572
-133.81199905   6.05342454   0.00006606
-133.71199905   6.05335278   0.00006640
-133.61199905   6.05328069   0.00006674
-133.51199905   6.05320828   0.00006709
-133.41199905   6.05313554   0.00006743
-133.31199905   6.05306247   0.00006778
-133.21199905   6.05298907   0.00006813
-133.11199905   6.05291533   0.00006848
-133.01199905   6.05284126   0.00006883
-132.91199905   6.05276686   0.00006918
-132.81199905   6.05269212   0.00006953
-132.71199905   6.05261704   0.00006989
-132.61199905   6.05254163   0.00007025
-132.51199905   6.05246587   0.00007061
-132.41199905   6.05238978   0.00007097
-132.31199905   6.05231334   0.00007133
-132.21199905   6.05223656   0.00007169
-132.11199905   6.05215943   0.00007206
-132.01199905   6.05208195   0.00007243
-131.91199905   6.05200413   0.00007280
-131.81199905   6.05192596   0.00007317
-131.71199905   6.05184744   0.00007354
-131.61199905   6.05176857   0.00007391
-131.51199905   6.05168935   0.00007429
-131.41199905   6.05160977   0.00007467
-131.31199905   6.05152983   0.00007504
-131.21199905   6.05144954   0.00007542
-131.11199905   6.05136889   0.00007581
-131.01199905   6.05128788   0.00007619
-130.91199905   6.05120652   0.00007658
-130.81199905   6.05112478   0.00007696
-130.71199905   6.05104269   0.00007735
-130.61199905   6.05096023   0.00007774
-130.51199905   6.05087741   0.00007814
-130.41199905   6.05079421   0.00007853
-130.31199905   6.05071065   0.00007893
-130.21199905   6.05062672   0.00007933
-130.11199905   6.05054242   0.00007973
-130.01199905   6.05045774   0.00008013
-129.91199905   6.05037269   0.00008053
-129.81199905   6.05028727   0.00008093
-129.71199905   6.05020147   0.00008134
-129.61199905   6.05011528   0.00008175
-129.51199905   6.05002872   0.00008216
-129.41199905   6.04994178   0.00008257
-129.31199905   6.04985446   0.00008299
-129.21199905   6.04976675   0.00008340
-129.11199905   6.04967866   0.00008382
-129.01199905   6.04959018   0.00008424
-128.91199905   6.04950132   0.00008466
-128.81199905   6.04941206   0.00008508
-128.71199905   6.04932241   0.00008551
-128.61199905   6.04923237   0.00008594
-128.51199905   6.04914194   0.00008636
-128.41199905   6.04905111   0.00008680
-128.31199905   6.04895989   0.00008723
-128.21199905   6.04886827   0.00008766
-128.11199905   6.04877625   0.00008810
-128.01199905   6.04868383   0.00008854
-127.91199905   6.04859100   0.00008898
-127.81199905   6.04849778   0.00008942
-127.71199905   6.04840414   0.00008986
-127.61199905   6.04831011   0.00009031
-127.51199905   6.04821566   0.00009076
-127.41199905   6.04812080   0.00009121
-127.31199905   6.04802554   0.00009166
-127.21199905   6.04792986   0.00009211
-127.11199905   6.04783377   0.00009257
-127.01199905   6.04773726   0.00009302
-126.91199905   6.04764034   0.00009348
-126.81199905   6.04754300   0.00009394
-126.71199905   6.04744523   0.00009441
-126.61199905   6.04734705   0.00009487
-126.51199905   6.04724845   0.00009534
-126.41199905   6.04714942   0.00009581
-126.31199905   6.04704997   0.00009628
-126.21199905   6.04695009   0.00009676
-126.11199905   6.04684978   0.00009723
-126.01199905   6.04674904   0.00009771
-125.91199905   6.04664787   0.00009819
-125.81199905   6.04654626   0.00009867
-125.71199905   6.04644423   0.00009915
-125.61199905   6.04634175   0.00009964
-125.51199905   6.04623884   0.00010013
-125.41199905   6.04613549   0.00010062
-125.31199905   6.04603170   0.00010111
-125.21199905   6.04592747   0.00010160
-125.11199905   6.04582279   0.00010210
-125.01199905   6.04571767   0.00010260
-124.91199905   6.04561210   0.00010310
-124.81199905   6.04550609   0.00010360
-124.71199905   6.04539962   0.00010411
-124.61199905   6.04529270   0.00010461
-124.51199905   6.04518534   0.00010512
-124.41199905   6.04507751   0.00010563
-124.31199905   6.04496923   0.00010615
-124.21199905   6.04486050   0.00010666
-124.11199905   6.04475130   0.00010718
-124.01199905   6.04464164   0.00010770
-123.91199905   6.04453152   0.00010822
-123.81199905   6.04442094   0.00010875
-123.71199905   6.04430989   0.00010927
-123.61199905   6.04419838   0.00010980
-123.51199905   6.04408640   0.00011033
-123.41199905   6.04397394   0.00011086
-123.31199905   6.04386102   0.00011140
-123.21199905   6.04374762   0.00011194
-123.11199905   6.04363375   0.00011248
-123.01199905   6.04351940   0.00011302
-122.91199905   6.04340457   0.00011356
-122.81199905   6.04328927   0.00011411
-122.71199905   6.04317348   0.00011466
-122.61199905   6.04305721   0.00011521
-122.51199905   6.04294046   0.00011576
-122.41199905   6.04282321   0.00011632
-122.31199905   6.04270549   0.00011688
-122.21199905   6.04258727   0.00011744
-122.11199905   6.04246856   0.00011800
-122.01199905   6.04234936   0.00011857
-121.91199905   6.04222966   0.00011913
-121.81199905   6.04210947   0.00011970
-121.71199905   6.04198878   0.00012028
-121.61199905   6.04186759   0.00012085
-121.51199905   6.04174590   0.00012143
-121.41199905   6.04162371   0.00012201
-121.31199905   6.04150102   0.00012259
-121.21199905   6.04137782   0.00012317
-121.11199905   6.04125411   0.00012376
-121.01199905   6.04112989   0.00012435
-120.91199905   6.04100516   0.00012494
-120.81199905   6.04087992   0.00012553
-120.71199905   6.04075416   0.00012613
-120.61199905   6.04062789   0.00012673
-120.51199905   6.04050110   0.00012733
-120.41199905   6.04037380   0.00012793
-120.31199905   6.04024597   0.00012854
-120.21199905   6.04011762   0.00012915
-120.11199905   6.03998874   0.00012976
-120.01199905   6.03985934   0.00013037
-119.91199905   6.03972941   0.00013099
-119.81199905   6.03959895   0.00013161
-119.71199905   6.03946796   0.00013223
-119.61199905   6.03933644   0.00013285
-119.51199905   6.03920438   0.00013348
-119.41199905   6.03907179   0.00013410
-119.31199905   6.03893866   0.00013474
-119.21199905   6.03880499   0.00013537
-119.11199905   6.03867077   0.00013601
-119.01199905   6.03853602   0.00013664
-118.91199905   6.03840072   0.00013729
-118.81199905   6.03826487   0.00013793
-118.71199905   6.03812847   0.00013858
-118.61199905   6.03799153   0.00013923
-118.51199905   6.03785403   0.00013988
-118.41199905   6.03771598   0.00014053
-118.31199905   6.03757737   0.00014119
-118.21199905   6.03743820   0.00014185
-118.11199905   6.03729848   0.00014251
-118.01199905   6.03715820   0.00014318
-117.91199905   6.03701735   0.00014384
-117.81199905   6.03687594   0.00014451
-117.71199905   6.03673396   0.00014519
-117.61199905   6.03659142   0.00014586
-117.51199905   6.03644830   0.00014654
-117.41199905   6.03630462   0.00014722
-117.31199905   6.03616036   0.00014791
-117.21199905   6.03601552   0.00014859
-117.11199905   6.03587011   0.00014928
-117.01199905   6.03572412   0.00014997
-116.91199905   6.03557755   0.00015067
-116.81199905   6.03543040   0.00015137
-116.71199905   6.03528266   0.00015207
-116.61199905   6.03513434   0.00015277
-116.51199905   6.03498543   0.00015348
-116.41199905   6.03483593   0.00015419
-116.31199905   6.03468584   0.00015490
-116.21199905   6.03453516   0.00015561
-116.11199905   6.03438388   0.00015633
-116.01199905   6.03423200   0.00015705
-115.91199905   6.03407953   0.00015777
-115.81199905   6.03392645   0.00015850
-115.71199905   6.03377278   0.00015923
-115.61199905   6.03361849   0.00015996
-115.51199905   6.03346361   0.00016069
-115.41199905   6.03330811   0.00016143
-115.31199905   6.03315201   0.00016217
-115.21199905   6.03299529   0.00016291
-115.11199905   6.03283796   0.00016366
-115.01199905   6.03268001   0.00016441
-114.91199905   6.03252145   0.00016516
-114.81199905   6.03236227   0.00016591
-114.71199905   6.03220247   0.00016667
-114.61199905   6.03204204   0.00016743
-114.51199905   6.03188099   0.00016819
-114.41199905   6.03171931   0.00016896
-114.31199905   6.03155701   0.00016973
-114.21199905   6.03139407   0.00017050
-114.11199905   6.03123050   0.00017128
-114.01199905   6.03106630   0.00017206
-113.91199905   6.03090146   0.00017284
-113.81199905   6.03073599   0.00017362
-113.71199905   6.03056987   0.00017441
-113.61199905   6.03040311   0.00017520
-113.51199905   6.03023571   0.00017599
-113.41199905   6.03006766   0.00017679
-113.31199905   6.02989897   0.00017759
-113.21199905   6.02972962   0.00017839
