# intensity: 0.872363356222527
# background: 0
#           Q (1/A)             dQ (1/A)                    R                   dR               theory              fresnel
  0.0079921268598835 9.40519315655745e-05    0.959352659111254   0.0863329197721766    0.872363356222527    0.872363356222527
  0.0081120087627818 9.54627105390213e-05    0.977761005331445   0.0782685578600449    0.872363356222527    0.872363356222527
  0.0082336888942235 9.68946511971489e-05    0.666208624918063   0.0668104430386138    0.872363356222527    0.872363356222527
  0.0083571942276368 9.83480709650638e-05    0.901028432507553   0.0697023985696759    0.872363356222527    0.872363356222527
  0.0084825521410514 9.98232920295745e-05    0.916843704401216   0.0689288296500538    0.872363356222527    0.872363356222527
  0.0086097904231672     0.00010132064141    0.964071254137183   0.0675588560352873    0.872363356222527    0.872363356222527
  0.0087389372795147 0.000102840451031149    0.960485284908037   0.0634193195824152    0.872363356222526    0.872363356222527
  0.0088700213387074 0.000104383057796638    0.880057042236732   0.0578794225996152    0.872363356222527    0.872363356222527
   0.009003071658788 0.000105948803663574    0.960240302722626   0.0552449516133114    0.872363356222527    0.872363356222527
  0.0091381177336698 0.000107538035718511     0.90941001583039    0.052826290269249    0.872363356222528    0.872363356222527
  0.0092751894996749 0.000109151106254298    0.941426978290359   0.0527185011694044    0.872363356222529    0.872363356222527
    0.00941431734217 0.000110788372848128    0.953643949461354   0.0477218203495499    0.872363356222534    0.872363356222527
  0.0095555321023025 0.000112450198440851    0.978014290043151   0.0521279932425401     0.87236335622254    0.872363356222527
  0.0096988650838371  0.00011416783083583    0.869401348939724   0.0484809803214012    0.872363356222535    0.872363356222527
  0.0098443480600946 0.000115880348298383    0.901976598628091   0.0793650632334033    0.872363356222529    0.872363356222527
   0.009992013280996 0.000117618553522851    0.830661271521954   0.0801286030407704    0.872363356222528    0.872363356222527
   0.010141893480211 0.000119382831825702    0.925207440102119   0.0749050673474841    0.872363356222528    0.872363356222527
  0.0102940218824141 0.000121173574303064    0.901273559993184   0.0714618678883406    0.872363356222528    0.872363356222527
  0.0104484322106503 0.000122991177917617     1.08565673491723   0.0760980788073943    0.872363356222527    0.872363356222527
  0.0106051586938101 0.000124836045586383    0.912413426761278   0.0652190195696624    0.872363356222527    0.872363356222527
  0.0107642360742173  0.00012670858627017    0.777662203264577   0.0597506032110479    0.872363356222527    0.872363356222527
  0.0109256996153305 0.000128609215064213     0.85416867009807   0.0566460330111272    0.872363356222528    0.872363356222527
  0.0110895851095605  0.00013053835329017    0.733322688810685   0.0513855854121584    0.872363356222527    0.872363356222527
  0.0112559288862039 0.000132496428589532    0.599144591879691   0.0471278619651368    0.872363356222528    0.872363356222527
  0.0114247678194969 0.000134483875018383    0.765845445818249   0.0488277346406301    0.872363356222528    0.872363356222527
  0.0115961393367894  0.00013650113314366      0.9025139585068   0.0511502184223812    0.872363356222527    0.872363356222527
  0.0117700814268412 0.000138548650140809    0.865159342203867   0.0610307839983628    0.872363356222527    0.872363356222527
  0.0119466326482438 0.000140588843992383    0.949994430692119   0.0600199350647557    0.872363356222527    0.872363356222527
  0.0121258321379675 0.000142697676652255    0.994219929084761    0.112507543460286    0.872363356222527    0.872363356222527
   0.012307719620037 0.000144838141802043    0.939756012610899    0.104394746411021    0.872363356222527    0.872363356222527
  0.0124923354143376 0.000147010713929064    0.850502243602394   0.0946497075822084    0.872363356222527    0.872363356222527
  0.0126797204455526    0.000149215874638    0.937932740904165    0.096313890321653    0.872363356222527    0.872363356222527
  0.0128699162522359 0.000151454112757574    0.953475820512689   0.0950700467841092    0.872363356222527    0.872363356222527
  0.0130629649960195 0.000153725924448936    0.913007322999472   0.0908836420709694    0.872363356222527    0.872363356222527
  0.0132589094709597 0.000156031813315702    0.942869569376723   0.0893941204244186    0.872363356222527    0.872363356222527
  0.0134577931130241 0.000158372290515404    0.974260719848404   0.0898724074259334    0.872363356222527    0.872363356222527
  0.0136596600097195 0.000160747874873149    0.911630485243784   0.0858435451173232     0.87235417068684    0.872230977561017
  0.0138645549098653 0.000163159092996255    0.981411404554406   0.0870842425838354    0.872036300116604     0.86792889454926
  0.0140725232335133 0.000165606479391191    0.984575262316618   0.0846687039227537    0.868757941164905    0.829352478890994
   0.014283611082016 0.000168090576582085    0.851260999310404   0.0745762433387665    0.854682534298906     0.69637862297572
  0.0144978652482462 0.000170611935230809    0.820232369649995   0.0698815356359592    0.826222531414933    0.494620227469559
  0.0147153332269699 0.000173171114259277    0.720186637438975   0.0621753469759958    0.791724508495907     0.34708472178775
  0.0149360632253744 0.000175768680973149    0.734847762638329   0.0620195319176605    0.753421830499483     0.26852512797803
  0.0151601041737551 0.000178405211187745    0.700077479935467   0.0588293821955902    0.708326571347688     0.21982496856086
  0.0153875057363614 0.000181081289355574    0.612270792086059   0.0524156260915706    0.654922093113203    0.184863498299161
  0.0156183183224068 0.000183797508695872    0.502072505327924   0.0306104134842339     0.59328111290577    0.158132030163415
  0.0158525930972429  0.00018655447132634    0.471139159574142   0.0284808691637709    0.525007068426679      0.1369377252824
  0.0160903819937015 0.000189404017239319    0.431994505990859   0.0362209410551845    0.453191529487849    0.119708473712128
  0.0163317377236071 0.000192245077497915    0.324511911943238   0.0289186384133375    0.381899637895726    0.105438391516386
  0.0165767137894612 0.000195128753660383    0.303047781947692   0.0262831404101458    0.315207484940958   0.0934470433400145
  0.0168253644963031 0.000198055684965277    0.278181687187118   0.0246269067997413    0.256183019471446   0.0832521135528465
  0.0170777449637476 0.000201026520239745    0.189921784441506   0.0199355551438219    0.206285760430348   0.0745004585233293
  0.0173339111382038 0.000204041918043362     0.14241892052721    0.015492511561257    0.165401573852146   0.0669265099995433
  0.0175939198052769    0.000207102546814    0.142254538849113   0.0147787307895274    0.132354333864158   0.0603261363448931
   0.017857828602356 0.000210209085016213    0.105203065507134   0.0134983032660467    0.105556833672864   0.0545395302986172
  0.0181256960313914 0.000213362221291447   0.0697558887943671   0.0105480062175138   0.0835320863955348   0.0494396223647292
  0.0183975814718623 0.000216562654610809   0.0561097438733768   0.0087464342354244   0.0652036444816483    0.044924010748082
  0.0186735451939402     0.00021981109443   0.0396436506045826   0.0079208994801057   0.0499773655942497   0.0409092035252611
  0.0189536483718493 0.000223108260846426   0.0390949590360577   0.0067964348461589   0.0376815065188539   0.0373264241716629
   0.019237953097427 0.000226454884759149   0.0203348004228777   0.0044344045443101    0.028428346914026   0.0341184999244536
  0.0195265223938884 0.000229851708030511   0.0252755598710645   0.0050944630641271   0.0224448410634382   0.0312375161541581
  0.0198194202297968 0.000233299483650979   0.0101186812822384   0.0042397496414725   0.0199084623618079   0.0286430228107571
  0.0201167115332437 0.000236798975905745   0.0213632262192617   0.0044568953543334   0.0208175243399174    0.026300645412461
  0.0204184622062424  0.00024035096054434   0.0276531706880829   0.0051923466918152   0.0249171609878653   0.0241809969094339
   0.020724739139336 0.000243956224952468   0.0259381848372337   0.0055091571521326   0.0316894094095591   0.0222588163398582
   0.021035610226426 0.000247615568326766   0.0470589201056769   0.0063374054545709   0.0404003506545693   0.0205122805265596
  0.0213511443798224  0.00025132980185166   0.0498485299418204    0.006315488582682   0.0501845177855319   0.0189224492718648
  0.0216714115455197 0.000255099748879447   0.0503899884348969   0.0061223475892484   0.0601416149858898   0.0174728145930451
  0.0219964827187025 0.000258926245112638    0.075775321126568   0.0070077135784716   0.0694239304781212   0.0161489317990098
  0.0223264299594831 0.000262810138789319    0.070045802569237    0.006780884672307   0.0773015996860229   0.0149381155005197
  0.0226613264088753 0.000266752290871191   0.0910439078373452    0.007585178069949   0.0832024873911829   0.0138291875498424
  0.0230012463050085 0.000270753575234255    0.088460517116932   0.0042678308268021   0.0867304295234075   0.0128122668171677
  0.0233462649995836 0.000274814878862766   0.0850417325697336    0.003952892878778   0.0876686612507969   0.0118785929045298
  0.0236964589745773 0.000278937102045702   0.0832687251887954    0.003862586874678   0.0859750118520978   0.0110203775660831
   0.024051905859196 0.000283121158576383     0.08567799361558   0.0040547574688452   0.0817731886963904   0.0102306788833814
  0.0244126844470839 0.000285589001957787   0.0728875775395526   0.0031914816015951   0.0753467530965317  0.00950278876785665
  0.0247788747137902 0.000289872836987149   0.0677508109857383   0.0029459926099161   0.0671000489497309  0.00883220517306846
   0.025150557834497 0.000294220929541957   0.0552386815284451   0.0024589299700132   0.0575757657903735  0.00821339162763256
  0.0255278162020145 0.000298634243485106   0.0482839794204103   0.0021840115245077   0.0473932421097903  0.00764186523607588
  0.0259107334450447 0.000303113757137362   0.0380292077891155    0.001805719174639    0.037211212302959  0.00711358671314483
  0.0262993944467204 0.000307660463494425   0.0269254844996092   0.0013719828363006   0.0276720515882088   0.0066249098586793
  0.0266938853634212 0.000312275370446851   0.0209426415944552    0.001151640292346   0.0193410033925812   0.0061725376273826
  0.0270942936438725 0.000316959501003574    0.013458424506409   0.0008601726802953   0.0126497652965801  0.00575348381793816
  0.0275007080485306 0.000321713893518596    0.009242792897109   0.0006591590098304   0.0078551075260196   0.0053650395673226
  0.0279132186692585 0.000326539601921404   0.0049134761796699   0.0005153186030348  0.00502108929425951  0.00500474396806657
  0.0283319169492974 0.000331437695950213    0.004168731370886   0.0005005390074748  0.00402828382044978   0.0046703582345139
  0.0287568957035369 0.000336409261389447   0.0053744463569496   0.0004910243443424  0.00460703367193315  0.00435984293344253
  0.0291882491390899 0.000341455400310298    0.006566286980133   0.0005520596468143   0.0063865227914385  0.00407133786836741
  0.0296260728761763 0.000346577231314979   0.0085194101811572   0.0006280890881457   0.0089491086295002  0.00380314426834063
  0.0300704639693189 0.000351775889784681   0.0122721148051846    0.000752126584641    0.011880230688848  0.00355370898338668
  0.0305215209288587 0.000357052528131447      0.0159076287477   0.0008833656879523   0.0148073267229676  0.00332161043169963
  0.0309793437427915 0.000362408316053404   0.0177735816972228    0.000951296522311   0.0174250231829199  0.00310554607987063
  0.0314440338989334 0.000367844440794213    0.019695731075633   0.0010187486686665   0.0195071400993313  0.00290432126789003
  0.0319156944074174 0.000373362107406128   0.0214969067898799   0.0010963144554278   0.0209081169281715  0.00271683921646126
  0.0323944298235287 0.000378962539017234   0.0227197038896666   0.0011323215117368    0.021557280132866   0.0025420920760491
  0.0328803462708816 0.000384646977102511   0.0229336382648062   0.0011623726432437   0.0214492319780894  0.00237915289572044
  0.0333735514649448 0.000390416681759021   0.0199654879104709   0.0010502562907449   0.0206329248990672  0.00222716840574006
   0.033874154736919 0.000396272931985404   0.0180931782384039   0.0009603303656931   0.0192010210925513  0.00208535252150181
  0.0343822670579728 0.000402217025965191   0.0183473449511538   0.0009848072895454   0.0172801575424515  0.00195298048806151
  0.0348980010638424 0.000408250281354681   0.0150965800195732   0.0008454839446888   0.0150219128749538  0.00182938359459425
     0.0354214710798 0.000414374035574979   0.0134364988737236   0.0007613705031108   0.0125937383236064  0.00171394439677327
   0.035952793145997 0.000420589646108596    0.011216681439234   0.0006694922246578   0.0101689717886398  0.00160609239256736
  0.0364920850431869 0.000426898490800255   0.0084633669638673   0.0005591857331122  0.00791534478480385   0.0015053001034534
  0.0370394663188347 0.000433301968162255   0.0061380989423308   0.0004603625003647  0.00598206487617802  0.00141107951868548
  0.0375950583136173 0.000439801497684681    0.005182791140308   0.0004201361376611  0.00448643908506431   0.0013229788651756
  0.0381589841883215 0.000446398520149957    0.003479969156666   0.0003222948722776  0.00350182094661354  0.00124057966982572
  0.0387313689511463 0.000453094497952213   0.0030903406677309   0.0003134846217674  0.00304910666094651  0.00116349408489584
  0.0393123394854135 0.000459890915421489   0.0032915203044359   0.0003344429186417   0.0030938453326648  0.00109136245027234
  0.0399020245776947 0.000466789279152809   0.0039284010042373   0.0003528162275371  0.00355022371283269   0.0010238510693764
  0.0405005549463601 0.000473791118340085   0.0047540596183017   0.0003918687552453  0.00429192649978539 0.000960650177980912
  0.0411080632705555 0.000480897985115191   0.0051370523696158   0.0004124980393074  0.00516851828110314 0.000901472087429723
  0.0417246842196139 0.000488111454891915   0.0063956487896406   0.0004570892728538  0.00602492919467775   0.0008460494857155
  0.0423505544829081 0.000495433126715319    0.006968022854751   0.0004846363620843  0.00672111559888707 0.000794133881606585
  0.0429858128001517 0.000502864623616043   0.0068710724485851   0.0004765680859277  0.00714906548910328 0.000745494178546761
   0.043630599992154 0.000510407592970298   0.0071400134207317    0.000483081232428  0.00724489751603281 0.000699915366411549
  0.0442850589920363 0.000518063706864851   0.0073926067995922   0.0005015781866982  0.00699464534456455 0.000657197320410721
  0.0449493348769168 0.000525834662467787   0.0063538819113983   0.0002780430659323  0.00643322698225624 0.000617153697499018
  0.0456235749000706 0.000536367095156298   0.0053044152334242   0.0002513387861521  0.00563675753962319 0.000579632154643522
  0.0463079285235716 0.000541728015140894    0.004380253551635   0.0002148533420903   0.0047106814816587 0.000544407249890502
  0.0470025474514252    0.000549853935368    0.003490639586135   0.0001899476562186  0.00377139572761674 0.000511391912830365
  0.0477075856631966 0.000558101744398511   0.0028109238291345   0.0001633640033771  0.00293046450419105 0.000480424321944707
  0.0484231994481445 0.000569280484553532   0.0023872995380564   0.0001583481913071  0.00227819961669842 0.000451389716026985
  0.0491495474398667 0.000574970369622979   0.0017658255686683   0.0001278347901927  0.00186605637637135 0.000424116602747838
  0.0498867906514647 0.000583594925167319   0.0016425670218435   0.0001240553306545  0.00171003975837396 0.000398539904870319
  0.0506350925112366 0.000592348849044808   0.0019833033944918   0.0001353446179897  0.00178061943999665 0.000374536616703129
  0.0513946188989052 0.000604213556387234   0.0019706473626359   0.0001101240605957   0.0020151650467817    0.000352019821292
  0.0521655381823887 0.000613276759733064   0.0022572684705687   0.0001217419713218  0.00232845688162354 0.000330870380606898
  0.0529480212551246 0.000622475911129064   0.0026953588394947   0.0001389628663347  0.00263105740950231 0.000311014868798291
  0.0537422415739514    0.000631813049796   0.0026577325667438   0.0001357752269871  0.00284375688296152 0.000292372038251574
  0.0545483751975607 0.000641290245542936   0.0029357578979801    0.000146845332265  0.00291188152748005 0.000274865931400759
  0.0553666008255241 0.000650909599226085   0.0028516091459582   0.0001433652071505   0.0028139678507273 0.000258425519118285
   0.056197099837907 0.000660673243214468   0.0025486258251765   0.0001303841057779   0.0025638129630737 0.000242984365402436
  0.0570400563354756 0.000670583341862681   0.0020814282165234   0.0001095064640665   0.0022055770375551 0.000228480316303432
  0.0578956571805077 0.000680642091990638   0.0017544156789624    9.48592517998e-05  0.00180294101820897 0.000214855211204081
  0.0587640920382153 0.000690851723370468   0.0014041422877871    8.01851668164e-05  0.00142454881258988 0.000202054614729792
  0.0596455534187885 0.000701214499221021   0.0010381149255039    6.38614623362e-05  0.00112883632879339   0.0001900275677069
  0.0605402367200703 0.000711732716709362   0.0008772175446359    5.72161846688e-05 0.000951613962688457 0.000178726355719434
  0.0614483402708714     0.00072240870746   0.0008902525910557     5.8327020969e-05 0.000899255178632119 0.000168106293933731
  0.0623700653749344 0.000733244838071872   0.0008843144877284    5.68833033404e-05 0.000949074635666338 0.000158125526968968
  0.0633056163555585 0.000744243510642979   0.0010121847802936    6.24564335232e-05  0.00105672216989313 0.000148744842690679
  0.0642552006008918 0.000755407163302596   0.0012769167537767    7.37525509459e-05  0.00116863215486951 0.000139927498894704
  0.0652190286099052  0.00076673827075217   0.0012606340758339    7.39209666389e-05  0.00123625336903097 0.000131639061931358
  0.0661973140390538 0.000778239344813447   0.0012481324880561    7.30427458423e-05  0.00122831901471228 0.000123847256395072
  0.0671902737496396  0.00078991293498566   0.0011785377454649    6.87392225981e-05   0.0011379398126481 0.000116521825073479
  0.0681981278558842 0.000801761629010426   0.0010421726953959    6.35535604428e-05 0.000982696592205052  0.00010963439841302
  0.0692210997737224 0.000813788053445574   0.0007479360213952    4.98941592875e-05 0.000797836862534358 0.000103158372815788
  0.0702594162703283 0.000825994874247277   0.0006168591241885     4.3566598002e-05 0.000624654500588371 9.70687971351625e-05
  0.0713133075143832 0.000838384797360979   0.0005176486963021    3.96196506187e-05 0.000497595918477683 9.13422667862729e-05
  0.0723830071270989 0.000850960569321404    0.000461750955097    3.65063718756e-05 0.000434093070162309 8.59568249317522e-05
  0.0734687522340054 0.000863724977861191   0.0004402513938341     3.4377536128e-05 0.000430316996381894  8.0891870244073e-05
  0.0745707835175154 0.000876680852529106   0.0004756193251552    3.58024078335e-05 0.000464124124379442 7.61280707832317e-05
  0.0756893452702782 0.000889831065317064   0.0004753715842974    3.57970510379e-05   0.0005040197303215 7.16472835630039e-05
  0.0768246854493324 0.000903178531296808   0.0005191360833786    3.78302725614e-05  0.00052084835143571 6.74324794107087e-05
  0.0779770557310723 0.000916726209266255   0.0004653765066443    3.52588681986e-05  0.00049794612321865 6.34676727545586e-05
  0.0791467115670384 0.000930477102405277   0.0004007441078251    3.15532098416e-05 0.000436077677540911 5.97378559995517e-05
   0.080333912240544 0.000944434258941362   0.0003629840816625    2.96825619585e-05 0.000351478396975032 5.62289381776051e-05
  0.0815389209241521 0.000958600772825447   0.0002212081537038    2.34662671234e-05 0.000268022456787502 5.29276875804369e-05
