# intensity: 0.982006074985912
# background: 0
#           Q (1/A)             dQ (1/A)                    R                   dR               theory              fresnel
  0.0079921268598835 9.39384290070213e-05     1.01116455332903   0.0859055266217906    0.981849504669541    0.982006074985912
  0.0081120087627818 9.53475054421277e-05      1.0075652220981   0.0791813569675222    0.981843572273778    0.982006074985912
  0.0082336888942235 9.67777180237447e-05     1.02829933513587   0.0776369225001791    0.981833355486048    0.982006074985912
  0.0083571942276368 9.82293837941277e-05     1.01781069304376   0.0746328959872007    0.981820299373054    0.982006074985912
  0.0084825521410514 9.97028245510213e-05     1.07042993825908   0.0721963423175999    0.981805361131653    0.982006074985912
  0.0086097904231672 0.000101198366919277     1.08837161932902   0.0687954244254926    0.981788365886357    0.982006074985912
  0.0087389372795147 0.000102716342423064    0.933897632040936   0.0608661512178597    0.981768916576183    0.982006074985912
  0.0088700213387074 0.000104257087559404    0.923119021205332   0.0577250804213582    0.981746508737591    0.982006074985912
   0.009003071658788 0.000105820943872808     1.03833923642376   0.0583498182979332    0.981720500124364    0.982006074985912
  0.0091381177336698 0.000107408258030894    0.964523119234387   0.0533354096333828    0.981690062528505    0.982006074985912
  0.0092751894996749 0.000109019381901362    0.993532148601386   0.0528990787269748    0.981654112556294    0.982006074985912
    0.00941431734217 0.000110654672629872     1.08277200850833    0.049787685307277    0.981611210067163    0.982006074985912
  0.0095555321023025 0.000112314492719319    0.991261820011126   0.0522983820271801     0.98155940562214    0.982006074985911
  0.0096988650838371 0.000113937492409319     1.05710760409759   0.0509766201902806    0.981495993058491    0.982006074985912
  0.0098443480600946 0.000115646554795447    0.952684200590123    0.082252080619644    0.981417181363908    0.982006074985912
   0.009992013280996 0.000117381253117362    0.962499257404639   0.0788148130532075    0.981317411052032    0.982006074985912
   0.010141893480211 0.000119141971914128    0.883506125479361   0.0730841709831718    0.981188336887209    0.982006074985912
  0.0102940218824141 0.000120929101492851    0.916450177022163   0.0688853476938891    0.981016903128305    0.982006074985912
  0.0104484322106503 0.000122743038015234    0.947201375040878   0.0683402327471389     0.98078167018182    0.982006074985912
  0.0106051586938101 0.000124584183585489     1.08650276837962   0.0687170658325518    0.980445209245638    0.982006074985912
  0.0107642360742173 0.000126452946339234    0.991783235877884   0.0641052737306728    0.979936714446988    0.982006074985912
  0.0109256996153305  0.00012834974053434     1.07694477800242   0.0635634576069764    0.979106391727749    0.982006074985912
  0.0110895851095605  0.00013027498664234    0.908923632413427   0.0558275804441451     0.97757730863195    0.982006074985912
  0.0112559288862039    0.000132229111442     1.00585141170323   0.0555390768564601    0.973979993262706    0.982006074985912
  0.0114247678194969 0.000134212548113617    0.842625442779678    0.051207209792027    0.960162970368981    0.982006074985911
  0.0115961393367894 0.000136225736335319    0.877080831771053   0.0480601857189574     0.90740199285927    0.982006074985912
  0.0117700814268412  0.00013826912238034    0.803374516828428   0.0593792419393619    0.824887706881696    0.982006074985911
  0.0119466326482438 0.000140115588902511    0.819908094843247   0.0560013174223446    0.819942963951471    0.982006074985912
  0.0121258321379675 0.000142217322736043    0.954774546082247    0.110014341113471    0.903047021143756    0.982006074985912
   0.012307719620037 0.000144350582577064     1.12867468936673     0.12045086452865    0.960308142362481    0.982006074985912
  0.0124923354143376 0.000146515841315745     1.14264517142876    0.117786532170128    0.975260215697927    0.982006074985912
  0.0126797204455526 0.000148713578935447      1.0423248922655    0.106502040941641    0.978783844025089    0.982006074985912
  0.0128699162522359 0.000150944282619489    0.953179244296012   0.0986612780951367     0.98015862231563    0.982006074985911
  0.0130629649960195 0.000153208446858809    0.985166695947368   0.0974183079546683    0.980872329956112    0.982006074985912
  0.0132589094709597  0.00015550657356166    0.869359899645482   0.0866517805118752    0.981294641076732    0.982006074985912
  0.0134577931130241 0.000157839172165106    0.988026950239647   0.0935036782974301    0.981564926396398    0.982006074985912
  0.0136596600097195 0.000160206759747574     1.03908378645812   0.0941400484225749    0.981734983343474    0.981861383597685
  0.0138645549098653 0.000162609861143787     1.03478710238001    0.091661128098284    0.981529055512094    0.977079700892097
  0.0140725232335133 0.000165049009060936     1.03099018972313   0.0885230743478749    0.978339330577461    0.933818245876063
   0.014283611082016 0.000167524744196851     1.05576660185725   0.0885791440292604    0.964813862169666    0.784078408338901
  0.0144978652482462  0.00017003761535983    0.870688306952052   0.0757286519711651    0.938482321522511    0.556574350164824
  0.0147153332269699 0.000172588179590213    0.895868992302312   0.0748875906626226     0.90839726777217    0.390474298505942
  0.0149360632253744 0.000175177002284043    0.796218634258826   0.0673238458953931    0.876664150038265     0.30215080970096
  0.0151601041737551  0.00017780465731834     0.94194749983829   0.0750869397441816    0.839801328905312    0.247390531319488
  0.0153875057363614 0.000180471727178085    0.787143364021194   0.0639062936560353     0.79534668105724    0.208060063013531
  0.0156183183224068 0.000183178803085787    0.717513723886472    0.040479011562616    0.741680395404471    0.177980343475636
  0.0158525930972429 0.000185926485132043    0.724419091719424   0.0394419291663317    0.677961388689483    0.154129076575025
  0.0160903819937015 0.000189352788396213    0.644756092339227   0.0491774321150187    0.604582684102158    0.134753380918707
  0.0163317377236071  0.00019219308022217    0.526734068149698    0.041656944720136    0.523640615973916    0.118689905287615
  0.0165767137894612 0.000195075976425489    0.459034465986057   0.0362837857193039    0.439085113849971    0.105191526402688
  0.0168253644963031 0.000198002116071872    0.345679492109991   0.0290271910448828    0.356198430080788    0.093715322467447
  0.0170777449637476 0.000200972147812979    0.314549541111283   0.0268556318488012    0.280398955470929   0.0838637732532924
  0.0173339111382038  0.00020398673003017    0.191819065197683   0.0186554313599724    0.215834466879912   0.0753379378067551
  0.0175939198052769 0.000207046530980596    0.188605961576841   0.0182624125309017    0.164448468174366   0.0679080316718986
   0.017857828602356 0.000210152228945319     0.14746954788756    0.015723571405072    0.125922058212001   0.0613941645793751
  0.0181256960313914 0.000213304512379489    0.117913688134999   0.0133434371393534   0.0983495735924893   0.0556532979659726
  0.0183975814718623 0.000216504080065191   0.0851568815660977    0.010228660651489   0.0791717051543365   0.0505701608625631
  0.0186735451939402  0.00021975164126617   0.0917897294263401   0.0106804622002918   0.0659425884573469   0.0460507685411855
  0.0189536483718493 0.000223047915885149   0.0663659171135743   0.0084486267901639   0.0567578802056287   0.0420177009559821
   0.019237953097427 0.000226393634623447   0.0373226025992716   0.0066799393209844   0.0503768249043662   0.0384066000838638
  0.0195265223938884 0.000229789539142809   0.0431546610962775   0.0063261143084871   0.0461493574380656   0.0351635295291298
  0.0198194202297968 0.000233236382229915   0.0411975947915761   0.0059840036704124   0.0438505007162403   0.0322429555767995
  0.0201167115332437 0.000236734927963362   0.0328237071637037   0.0054952872452211   0.0434898567954201   0.0296061836247474
  0.0204184622062424 0.000240285951882851   0.0456935742059229   0.0060147521220894    0.045135949338859   0.0272201333002771
   0.020724739139336 0.000243890241161064    0.048876253102497   0.0061169413454084   0.0487788999695516    0.025056368869304
   0.021035610226426 0.000247548594778511   0.0573100735889188   0.0066761605845657   0.0542448497523538   0.0230903244318019
  0.0213511443798224  0.00025126182370017   0.0703932095056604   0.0071899418752282   0.0611661977839863   0.0213006793921403
  0.0216714115455197  0.00025503075105566   0.0736772414434158    0.007412683921897   0.0690017690070757   0.0196688510448546
  0.0219964827187025 0.000258856212321489   0.0657401489635479   0.0067383995710635   0.0770925676758972   0.0181785792867882
  0.0223264299594831  0.00026273905550634    0.080355410877202   0.0075743490321648   0.0847346685966966   0.0168155844231133
  0.0226613264088753 0.000266680141338936   0.0850241137606944   0.0043743826443069   0.0912521265662742   0.0155672834289376
  0.0230012463050085 0.000270680343459021   0.0892754959158273   0.0043653060909525   0.0960581676451978   0.0144225533054653
  0.0233462649995836 0.000274740548610894   0.0934095013000849    0.004326695377274   0.0986995927334294   0.0133715326387472
  0.0236964589745773 0.000278861656840043   0.0985868062556318   0.0045377581870766   0.0988847275345971   0.0124054543467889
   0.024051905859196 0.000283044581692638   0.0967608948635459   0.0044519573331522   0.0964980760121523   0.0115165040414129
  0.0244126844470839 0.000286633019494766   0.0929053871162912   0.0040275407174776   0.0916073887634658   0.0106973064021221
  0.0247788747137902 0.000290932514787191   0.0846647780461409   0.0036828546386688   0.0844495420912751   0.0099424266478423
   0.025150557834497 0.000295296502509021   0.0746922793736634   0.0032718737898454     0.07543666609681  0.00924582504034968
  0.0255278162020145 0.000299725950046638   0.0639225543256779   0.0028635377472008   0.0651199658115285  0.00860245509314302
  0.0259107334450447 0.000304221839297362   0.0557406741031401   0.0025397307522636   0.0541564531485092  0.00800776970597724
  0.0262993944467204 0.000308785166886808   0.0422793456324225     0.00203605775501   0.0432569062944168  0.00745766428635745
  0.0266938853634212 0.000313416944390128   0.0383103661322728   0.0018697014813045    0.033120776972616  0.00694842729533379
  0.0270942936438725 0.000318118198555957   0.0273780857441409    0.001422272298162   0.0243649876085485  0.00647669711933829
  0.0275007080485306 0.000322889971534298   0.0186212049811534   0.0010764567428599   0.0174577295272615  0.00603942435150938
  0.0279132186692585 0.000327733321107319   0.0141460290686415   0.0008968388317298   0.0126698591516113  0.00563383871444445
  0.0283319169492974 0.000332649320923915   0.0102748216978181   0.0007666645187415    0.010053971054615  0.00525741997824445
  0.0287568957035369 0.000337639060737787    0.009092815880281   0.0006919130410781  0.00945510186977047  0.00490787232826148
  0.0291882491390899 0.000342703646648851   0.0112000081322622   0.0007718539527115   0.0105494463070393  0.00458310172022049
  0.0296260728761763 0.000347844201348596    0.013331460788733   0.0008665652564923   0.0129013095016262  0.00428119582961598
  0.0300704639693189 0.000353061864368809   0.0155002449814769   0.0009482480880474   0.0160258491278295  0.00400040626006284
  0.0305215209288587  0.00035835779233434   0.0203682474213559   0.0011161486454032   0.0194463259222793  0.00373913272367598
  0.0309793437427915 0.000363733159219362   0.0234326635475689   0.0012284625848675   0.0227383703869503  0.00349590894724089
  0.0314440338989334  0.00036918915660766   0.0245927103198248   0.0012657687391341   0.0255583385062548  0.00326939009224622
  0.0319156944074174 0.000374726993956766   0.0303915164293585   0.0014837681261899   0.0276566419842063  0.00305834150588553
  0.0323944298235287 0.000380347898866128   0.0273891234300719   0.0013786334319716   0.0288792557808718  0.00286162864477425
  0.0328803462708816 0.000386053117349106   0.0294898411471924   0.0014970323335285    0.029161407782966  0.00267820803410579
  0.0333735514649448 0.000391843914109362   0.0292436910750492   0.0014545214475309   0.0285171234615853  0.00250711914287645
   0.033874154736919 0.000397721572820979   0.0257095299087217   0.0013159104133157   0.0270273082929365  0.00234747707113815
  0.0343822670579728 0.000403687396413319   0.0244625589807708   0.0012744306128469   0.0248278098630623  0.00219846595839415
  0.0348980010638424 0.000409742707359489   0.0227544749188744   0.0011971571641465   0.0220977164612901  0.00205933303357364
     0.0354214710798 0.000415888847969872   0.0190167923780477   0.0010396606760293   0.0190472534624102  0.00192938323678622
   0.035952793145997 0.000422127180689447   0.0156858865264531   0.0009000048397057   0.0159042171886881  0.00180797435150056
  0.0364920850431869 0.000428459088399787   0.0134159477237769   0.0008190651249113   0.0128980579874112  0.00169451259310805
  0.0370394663188347 0.000434885974725787    0.010996311952663    0.000723498298353   0.0102414942267255  0.00158844860618722
  0.0375950583136173 0.000441409264346681   0.0073910985267929   0.0005698627043761  0.00811073893394235  0.00148927382831575
  0.0381589841883215 0.000448030403311872   0.0060700104729798   0.0004995899583662  0.00662669603818226  0.00139651718310096
  0.0387313689511463 0.000454750859361532   0.0061705887618105   0.0004949966811364  0.00584036201317784  0.00130974206931479
  0.0393123394854135 0.000461572122251957   0.0058831310206214   0.0004885509698976  0.00572572424312248  0.00122854361671181
  0.0399020245776947 0.000468495704085745   0.0072122452329098   0.0005376169120372  0.00618249395029718  0.00115254618234552
  0.0405005549463601 0.000475523139647021   0.0079365814201051   0.0005761022296481  0.00704922976448052  0.00108140106404492
  0.0411080632705555 0.000482655986741745   0.0080160323877303    0.000574874602945  0.00812530632584196  0.00101478441021855
  0.0417246842196139 0.000489895826542851   0.0099288169375834   0.0006529197190061  0.00919839046799053  0.00095239530736243
  0.0423505544829081 0.000497244263941021   0.0104996348661467   0.0006747651597177   0.0100730900795407 0.000893954028600165
  0.0429858128001517 0.000504702927900128   0.0100198133898118   0.0006546410526618    0.010596400176843 0.000839200428310347
   0.043630599992154 0.000512273471818638   0.0108864765785541   0.0006896008420015   0.0106763287061591 0.000787892469426517
  0.0442850589920363 0.000519957573895915   0.0105983955471811   0.0006934634386271   0.0102913119454152 0.000739804871352979
  0.0449493348769168 0.000527754201490894   0.0086176929690735   0.0003760183886171  0.00948941340637368 0.000694727857108725
  0.0456235749000706 0.000535673291566894   0.0081810898391733   0.0003605921570129  0.00837764578526457 0.000652466063690604
  0.0463079285235716 0.000543708390940425   0.0071977667700729   0.0003373166364249  0.00710304446827485 0.000612837385538715
  0.0470025474514252 0.000551861155814425   0.0053458397537468   0.0002706537066841  0.00582820937213309 0.000575672103334788
  0.0477075856631966 0.000560141977056596   0.0044381360994938   0.0002386911221832  0.00470503274815465 0.000540811982569805
  0.0484231994481445 0.000568544106712426    0.003745626910228    0.000208159642796  0.00385077778028122 0.000508109375261577
  0.0491495474398667  0.00057706927663766   0.0034826338407761   0.0002055025703919  0.00333058664172549 0.000477426540396182
  0.0498867906514647 0.000585725315787191   0.0031820636259221   0.0002008313846449  0.00314950474251485 0.000448634928952584
  0.0506350925112366 0.000594514277622894   0.0031412860857142   0.0001925724987488  0.00325541327066811 0.000421614507597071
  0.0513946188989052 0.000603428863456894   0.0034578651405658   0.0001862641747231  0.00355216619661078 0.000396253159056912
  0.0521655381823887 0.000612480296408723   0.0038892238951877   0.0002025951230302  0.00392018294023835 0.000372446183488892
  0.0529480212551246 0.000621667500854851   0.0045653608912117   0.0002306529133297  0.00424030139718459 0.000350095724161571
  0.0537422415739514 0.000630992513367702   0.0045083245813254   0.0002251422723284  0.00441620045723132 0.000329110324497617
  0.0545483751975607 0.000640457401068213   0.0041410608599388   0.0002080322477551  0.00439110256316758 0.000309404482664241
  0.0553666008255241 0.000650064262084213   0.0041104374919119    0.000207511241905   0.0041557271241071 0.000290898244527679
   0.056197099837907 0.000659815226015489   0.0037598667073319   0.0001932045870911  0.00374624181416427  0.00027351682620943
  0.0570400563354756 0.000669712454405702   0.0029373630037974   0.0001553194607684  0.00323296841869697 0.000257190263926572
  0.0578956571805077 0.000679758141221787   0.0025476139479421   0.0001377971137925  0.00270250347470346 0.000241853088995384
  0.0587640920382153 0.000689954513340128   0.0022539653181057   0.0001245983360786  0.00223734433294397 0.000227444026056269
  0.0596455534187885 0.000700303831040213   0.0018503839394404   0.0001073700833434  0.00189769913405407 0.000213905712740332
  0.0605402367200703  0.00071080838850583   0.0017556054123206   0.0001038233530928  0.00170964902001434 0.000201184439145552
  0.0614483402708714 0.000721470514333404   0.0016849601023752    9.92804425557e-05  0.00166223599114975 0.000189229905624776
  0.0623700653749344 0.000732292572048426    0.001749018503001   0.0001017284125228  0.00171373853546498 0.000177994997510107
  0.0633056163555585 0.000743276960629149   0.0019358576610765   0.0001100675035527  0.00180501812232548 0.000167435575509629
  0.0642552006008918 0.000754426115038596   0.0019516217530032   0.0001122692038174  0.00187607414137794 0.000157510280614213
  0.0652190286099052  0.00076574250676417   0.0019009814519284   0.0001117142892225  0.00188132272960652 0.000148180352444795
  0.0661973140390538 0.000777228644365617   0.0018431274459179   0.0001078809617666  0.00179973375061999 0.000139409460055463
  0.0671902737496396 0.000788887074031106   0.0017301790516625   0.0001013428992555  0.00163756949569444 0.000131163544285069
  0.0681981278558842 0.000800720380141574    0.001440462905791    8.95498457997e-05  0.00142357587098401 0.000123410670821097
  0.0692210997737224 0.000812731185843702   0.0012836771601556    8.05176776723e-05  0.00119850650366518 0.000116120893204377
  0.0702594162703283 0.000824922153631362   0.0009200169352201    6.25435266605e-05  0.00100228992659419 0.000109266125062774
  0.0713133075143832  0.00083729598593583   0.0009028599494223    6.26874971564e-05  0.00086261804269163 0.000102820020916488
  0.0723830071270989 0.000849855425724851   0.0007927320646477    5.80545153015e-05  0.00078812742072167 9.67578649476466e-05
  0.0734687522340054 0.000862603257110723   0.0007043061193981    5.23427574159e-05 0.000767847921789923  9.1056467172826e-05
  0.0745707835175154 0.000875542305967404   0.0006944203961259    5.21017652991e-05 0.000776654540295681 8.56940664993047e-05
  0.0756893452702782 0.000888675440556894   0.0007844875783007    5.50256150774e-05  0.00078466138572134 8.06502401846576e-05
  0.0768246854493324 0.000902005572165277   0.0007065244541301    5.16167260115e-05 0.000767374373480325  7.5905819254986e-05
  0.0779770557310723 0.000915535655747745   0.0007296130107201    5.23897761979e-05 0.000713294291297594 7.14428094698844e-05
  0.0791467115670384 0.000929268690583957    0.000592612841322    4.65510625506e-05 0.000626568732533255 6.72443174525016e-05
   0.080333912240544 0.000943207720942723   0.0004487361549254     3.8928761431e-05 0.000523977305970406 6.32944816309026e-05
  0.0815389209241521 0.000957355836756851   0.0003699844980984    3.48577214515e-05 0.000427509149590772 5.95784076626136e-05
