# intensity: 0.91880951916987
# background: 0
#           Q (1/A)             dQ (1/A)                    R                   dR               theory              fresnel
  0.0079921268598835 9.38113895411064e-05     1.02847366335677   0.0831740543453834    0.918809519169869     0.91880951916987
  0.0081120087627818 9.52185603842128e-05    0.928408498798101   0.0760394701540307     0.91880951916987     0.91880951916987
  0.0082336888942235 9.66468387899574e-05    0.934035400977968   0.0757376636257944     0.91880951916987     0.91880951916987
  0.0083571942276368 9.80965413718298e-05    0.812265566968785   0.0680769983796665     0.91880951916987     0.91880951916987
  0.0084825521410514  9.9567989492383e-05    0.974782484517906    0.068264781969646     0.91880951916987     0.91880951916987
  0.0086097904231672 0.000101061509334766    0.931879994458868   0.0656434932593086     0.91880951916987     0.91880951916987
  0.0087389372795147 0.000102577431974809    0.830644605879561   0.0587763244247926     0.91880951916987     0.91880951916987
  0.0088700213387074 0.000104116093454426    0.839277169080692   0.0554303051979214     0.91880951916987     0.91880951916987
   0.009003071658788 0.000105677834856255    0.949220568191229   0.0538915898193354     0.91880951916987     0.91880951916987
  0.0091381177336698 0.000107263002379106     0.98847340264326   0.0539052832321451     0.91880951916987     0.91880951916987
  0.0092751894996749 0.000108871947414766    0.944433756892794   0.0507032123593141    0.918809519169869     0.91880951916987
    0.00941431734217    0.000110505026626      0.9551854213736   0.0472988236477749    0.918809519169869     0.91880951916987
  0.0095555321023025 0.000112162602025404    0.989653101000117   0.0530403322233908    0.918809519169869     0.91880951916987
  0.0096988650838371 0.000114136951417447    0.967835784210508   0.0482191437975537    0.918809519169869     0.91880951916987
  0.0098443480600946 0.000115849005688723     1.05615108917822   0.0859105738900572     0.91880951916987     0.91880951916987
   0.009992013280996 0.000117586740774043    0.882175077467263   0.0745181344259856     0.91880951916987     0.91880951916987
   0.010141893480211  0.00011935054188566     1.05787658592863   0.0818670025834556     0.91880951916987     0.91880951916987
  0.0102940218824141 0.000121140800013957    0.925581615123772   0.0695488998084501     0.91880951916987     0.91880951916987
  0.0104484322106503 0.000122957912014128     0.98093891720072   0.0719780961612023     0.91880951916987     0.91880951916987
  0.0106051586938101  0.00012480228069434    0.844204125670307   0.0645447091960466     0.91880951916987     0.91880951916987
  0.0107642360742173 0.000126674314904766    0.837921365473975   0.0591075106016905     0.91880951916987     0.91880951916987
  0.0109256996153305  0.00012857442962834    0.855502016835848   0.0560360885888503    0.918809519169869     0.91880951916987
  0.0110895851095605 0.000130503046072766    0.898310481353079   0.0575042649306722    0.918809519169869    0.918809519169869
  0.0112559288862039 0.000132460591763872    0.755630768908517   0.0491016770582716     0.91880951916987     0.91880951916987
  0.0114247678194969  0.00013444750064034     0.78833397953916   0.0503312436608586     0.91880951916987    0.918809519169869
  0.0115961393367894 0.000136464213149915    0.782101266159428   0.0459112047224795     0.91880951916987     0.91880951916987
  0.0117700814268412 0.000138511176347191    0.993651291441046   0.0661578101452445     0.91880951916987    0.918809519169869
  0.0119466326482438 0.000140626879892936    0.971372715509826   0.0614436580509049     0.91880951916987    0.918809519169869
  0.0121258321379675 0.000142736283091319    0.943914489097888    0.109172025228969    0.918809519169874    0.918809519169869
   0.012307719620037 0.000144877327337702      1.0890771189677    0.115449469669671    0.918809519169877     0.91880951916987
  0.0124923354143376 0.000147050487247745     1.09222590694657    0.113815029592721    0.918809519169873     0.91880951916987
  0.0126797204455526 0.000149256244556468    0.940925594843684    0.101089457773803     0.91880951916987     0.91880951916987
  0.0128699162522359 0.000151495088224809    0.956918804516529   0.0984589192381611    0.918809519169869    0.918809519169869
  0.0130629649960195 0.000153767514548213     0.89158176112952   0.0883708726685648    0.918809519169869     0.91880951916987
  0.0132589094709597 0.000156074027266426    0.893101520233287   0.0862011972540819     0.91880951916987     0.91880951916987
  0.0134577931130241 0.000158415137675404    0.846237558459994   0.0825730242021414     0.91880951916987     0.91880951916987
  0.0136596600097195 0.000160791364740553      0.8918767153074    0.082043092957254    0.918798713096113    0.918669762570159
  0.0138645549098653  0.00016320323521166     1.03217661676776   0.0890408307087013     0.91842957527781    0.914133984092981
  0.0140725232335133  0.00016565128373983     1.04558630997568   0.0887570421111257     0.91471730055596    0.873491090982566
   0.014283611082016 0.000168136052995915    0.883884097507688   0.0755536308208833    0.899352281685832    0.733440406365446
  0.0144978652482462 0.000170658093790851    0.879309900149047   0.0737646126142282    0.869774420630674    0.520967487449317
  0.0147153332269699 0.000173217965197745    0.850711499688699   0.0711393197514243    0.836611531346577    0.365577381498762
  0.0149360632253744 0.000175816234675702    0.835213972153236   0.0679551333717443    0.802536363412708    0.282826977194792
  0.0151601041737551  0.00017845347819583    0.780389557241887    0.063440542604688    0.763954952833914    0.231531320300369
  0.0153875057363614 0.000181130280368766    0.687808399979324   0.0400399204669415    0.718717564064859      0.1947074962381
  0.0156183183224068 0.000183847234574298    0.694358798903179   0.0391081203908221    0.665916297906866    0.166552311500335
  0.0158525930972429 0.000186604943092894    0.570065533397795   0.0327733606272873    0.605694148754849    0.144229294580956
  0.0160903819937015 0.000189506558129362    0.600841618748417   0.0464579474893433    0.539447173359913    0.126083116826963
  0.0163317377236071 0.000192349156501319     0.45349075710375   0.0376565761471965    0.469866339131988    0.111053012780426
  0.0165767137894612 0.000195234393848809    0.375162642694228   0.0313646820660307    0.400556080682127    0.098423040122623
  0.0168253644963031 0.000198162909756553    0.314659936485917   0.0281524899445941    0.335254496411087   0.0876851785466015
  0.0170777449637476 0.000201135353402894    0.314939545990619   0.0267221280414951    0.276917714665568   0.0784674671579567
  0.0173339111382038 0.000204152383703957    0.233536011396916   0.0210984595906849     0.22709305975415   0.0704901887103534
  0.0175939198052769 0.000207214669459532    0.218376357096371   0.0204562620769713    0.185834576271429   0.0635383368639576
   0.017857828602356 0.000210322889501404     0.16522627524099   0.0161770956768518    0.152099527157769   0.0574435915951823
  0.0181256960313914 0.000213477732843915    0.128770517632475    0.013697932400855    0.124351722249507   0.0520721149628146
  0.0183975814718623 0.000216679898836596   0.0836485091671567   0.0111944728206938     0.10110204708959   0.0473160509386123
  0.0186735451939402 0.000219930097319149   0.0628350567721761    0.009901565829196   0.0812495886364862   0.0430874607454809
  0.0189536483718493 0.000223229048778936    0.057953408220725   0.0086611216247652    0.064212706721266     0.03931390488562
   0.019237953097427 0.000226577484510596   0.0479589389424171   0.0071225494097013   0.0498991832049522   0.0359351657166832
  0.0195265223938884 0.000229976146778255   0.0418927707473684   0.0065131383880956   0.0385727324626234   0.0329007768581302
  0.0198194202297968 0.000233425788979957   0.0330778557390833   0.0052804839188464   0.0306638971572153   0.0301681340900733
  0.0201167115332437 0.000236927175814638   0.0293905962519621   0.0048473048075469   0.0265669661904504   0.0277010323496582
  0.0204184622062424 0.000240481083451872   0.0245193994619394   0.0045596538777397    0.026462919821005   0.0254685196325341
   0.020724739139336 0.000244088299703617   0.0302819792803355   0.0052062299010803   0.0302038590641132   0.0234439897690925
   0.021035610226426 0.000247749624199191   0.0439037690818395   0.0057527150972352   0.0372803192575401   0.0216044574595824
  0.0213511443798224  0.00025146586856217    0.052640462003948   0.0060219552684475   0.0468704894629175   0.0199299739189366
  0.0216714115455197 0.000255237856590596   0.0551484257595058   0.0062642898096506   0.0579482986653368   0.0184031521042267
  0.0219964827187025 0.000259066424439489   0.0719995400596723   0.0071735748091694   0.0694152882002512   0.0170087781427454
  0.0223264299594831 0.000262952420806043   0.0904027023862173   0.0080020024671202   0.0802230772264632   0.0157334911522647
  0.0226613264088753  0.00026689670711817    0.112598510276736   0.0090907411293346    0.089465377486391   0.0145655177566614
  0.0230012463050085 0.000270900157724936   0.0997454947408438   0.0047341930777998   0.0964333856375103   0.0134944506666015
  0.0233462649995836 0.000274963660090808    0.101209846546992   0.0046768273410931     0.10063964571307   0.0125110630052635
  0.0236964589745773  0.00027908811499217   0.0967766793019164    0.004409578599464     0.10182060031983   0.0116071518160414
   0.024051905859196 0.000283274436717021    0.102294772056589    0.004737305886484   0.0999278052665196   0.0107754055371478
  0.0244126844470839 0.000287212566915149   0.0961896497475776   0.0041677101105958   0.0951160479421136    0.010009241520409
  0.0247788747137902 0.000291520755418894   0.0895538186302122   0.0038728911590694   0.0877201014963635  0.00930291300894071
   0.025150557834497  0.00029589356675017   0.0754876159661572   0.0033121411210278   0.0782452092035616  0.00865111481365545
  0.0255278162020145 0.000300331970251404   0.0649551241393654   0.0029160854680075   0.0673303789015516  0.00804912493357998
  0.0259107334450447 0.000304836949805191   0.0537163605463209   0.0024670688800528   0.0557084009809943  0.00749268865038622
  0.0262993944467204 0.000309409504052255   0.0459409760837217   0.0021765823946714   0.0441492518625974  0.00697796530547235
  0.0266938853634212 0.000314050646613064   0.0329954104483353    0.001682729059294   0.0333915784814552  0.00650148202432152
  0.0270942936438725 0.000318761406312255   0.0262166371322014   0.0014032727726673    0.024070494393804  0.00606009336042155
  0.0275007080485306 0.000323542827406936   0.0171397295621901   0.0010533069733989   0.0166540080836278   0.0056509460010667
  0.0279132186692585 0.000328395969818043    0.011202401202063   0.0008105651492157   0.0114009000683536  0.00527144781632176
  0.0283319169492974 0.000333321909365319    0.007713683149037   0.0006666304573855  0.00834884640455041  0.00491924064652232
  0.0287568957035369 0.000338321738005787   0.0074377486901639   0.0006433893212382  0.00733423192760301  0.00459217631777489
  0.0291882491390899 0.000343396564075872    0.008274738130343    0.000665532686578  0.00803726714894553  0.00428829545283282
  0.0296260728761763 0.000348547512537021    0.009930583181033   0.0007277315605429   0.0100407432677464  0.00400580870950696
  0.0300704639693189 0.000353775725225064   0.0140262817068633   0.0008818699222953     0.01288964387819  0.00374308013283696
  0.0305215209288587 0.000359082361103447   0.0161635158144554   0.0009579226635139   0.0161414993206234  0.00349861235253554
  0.0309793437427915     0.00036446859652    0.019920847910345   0.0011049911240971   0.0194020590629398  0.00327103339529167
  0.0314440338989334 0.000369935625467787   0.0234967392896289   0.0012379568582011   0.0223455768654936  0.00305908491362341
  0.0319156944074174 0.000375484659849787   0.0243354187919246   0.0012761652434425   0.0247224039426311  0.00286161166014165
  0.0323944298235287 0.000381116929747532   0.0264351332873409   0.0013496379260256   0.0263582075897032  0.00267755205914151
  0.0328803462708816 0.000386833683693787   0.0268087268405783   0.0013931798191185   0.0271491797034143  0.00250592974706868
  0.0333735514649448 0.000392636188949191   0.0269277719069581    0.001393923881345   0.0270565727784672  0.00234584597016233
   0.033874154736919 0.000398525731783404   0.0242663086131574   0.0012593269873668   0.0261023330554509  0.00219647274192134
  0.0343822670579728  0.00040450361776017   0.0237315335867185   0.0012569864632765   0.0243659401502656  0.00205704667535064
  0.0348980010638424 0.000410571172026553   0.0233475884634525   0.0012350801207071   0.0219811612434665  0.00192686341553793
     0.0354214710798 0.000416729739606979   0.0189574372300318   0.0010447761104441   0.0191305610492957  0.00180527260724869
   0.035952793145997 0.000422980685701064    0.016952832810491   0.0009481167275989   0.0160354826882782  0.00169167334012774
  0.0364920850431869 0.000429325395986596   0.0133963445037662    0.000828144438808   0.0129399371372857  0.00158551002094216
  0.0370394663188347 0.000435765276926383   0.0110774098332557   0.0007288566358041   0.0100883520805628  0.00148626862824665
  0.0375950583136173 0.000442301756080255   0.0085342354521272   0.0006198988770119  0.00769913539740736  0.00139347331002833
  0.0381589841883215 0.000448936282421489   0.0059511008671926   0.0004878854098644  0.00593794628542109  0.00130668328940125
  0.0387313689511463 0.000455670326657787   0.0048503989287555   0.0004272907063978   0.0048957365617455   0.0012254900473661
  0.0393123394854135  0.00046250538155766   0.0046683042054169   0.0004327356625593  0.00457644321466381  0.00114951475510472
  0.0399020245776947 0.000469442962281021   0.0051438476692892   0.0004486359794609   0.0048975249032088  0.00107840593130838
  0.0405005549463601 0.000476484606715234    0.005415510774464   0.0004831291875693  0.00570377284546981  0.00101183730270238
  0.0411080632705555    0.000483631875816   0.0070203114894004   0.0005451058745507  0.00679187937354309 0.000949505848273321
  0.0417246842196139 0.000490886353953234   0.0075895684817359   0.0005534825687464  0.00794106776493819 0.000891130009773183
  0.0423505544829081 0.000498249649262511   0.0096312118795284   0.0006390047661116   0.0089442635478781 0.000836448052900332
  0.0429858128001517 0.000505723394001447   0.0093744507888501   0.0006266598156806  0.00963483712886916 0.000785216565173401
   0.043630599992154 0.000513309244911489   0.0098528904414669   0.0006585799901668  0.00990541861491979 0.000737209077946011
  0.0442850589920363 0.000521008883585149   0.0088505286946945   0.0006119153248886  0.00971705911164304 0.000692214801280794
  0.0449493348769168 0.000527899065249021   0.0089862895404442   0.0003868442065493  0.00909890192836377 0.000650019482861648
  0.0456235749000706 0.000536756377091489   0.0078350945507193   0.0003451452587135  0.00813725447415072 0.000610494232480819
  0.0463079285235716 0.000544807722747872   0.0070449356665342   0.0003276539114791   0.0069622888372866 0.000573414751800119
  0.0470025474514252 0.000552012636713617   0.0058058328651393   0.0002821287549105  0.00572354168352904 0.000538625414031772
  0.0477075856631966 0.000561274536167957   0.0045048996306311    0.000250771667587  0.00457099453375843 0.000506022542626072
  0.0484231994481445 0.000569693654210468   0.0037323448209581   0.0002141345914919  0.00362829124249526 0.000475423607198918
  0.0491495474398667 0.000577227676938128   0.0031251740901385    0.000206415460196  0.00297933385785406 0.000446702323264757
  0.0498867906514647 0.000585886092092213   0.0023775620596541   0.0001588580743489   0.0026579665600075 0.000419763560720778
  0.0506350925112366 0.000595716334582596   0.0028229461113185    0.000193396167279  0.00264239988449605 0.000394492737817179
  0.0513946188989052 0.000603594499225702   0.0026650661234187   0.0001498437629789  0.00286301126000067 0.000370752755749268
  0.0521655381823887 0.000612648416714085    0.003060017169146   0.0001648509534534  0.00321974452491918 0.000348477849178627
  0.0529480212551246 0.000621838142964808   0.0036618139409081   0.0001893961244739  0.00359794138783426 0.000327565726583713
  0.0537422415739514 0.000631165715109277   0.0036805367110231   0.0001881290847465  0.00389108506684906 0.000307930816953494
  0.0545483751975607 0.000640633200835915   0.0037144576625579   0.0001883252417916  0.00401902624299719 0.000289493120812413
  0.0553666008255241 0.000650242698848468   0.0038845792924218   0.0001968807299898  0.00394096656642339 0.000272177829369655
   0.056197099837907 0.000659996339331191   0.0036350003902937   0.0001855249339527  0.00366062265222484 0.000255914971365183
  0.0570400563354756 0.000669896284421149   0.0031096989135441    0.000161371650453  0.00322276632577662 0.000240639085444042
  0.0578956571805077 0.000679944728687447   0.0025905559949977   0.0001386971147819   0.0027018843414661 0.000226288916074628
  0.0587640920382153 0.000690143899617787   0.0021288636788483   0.0001181595846224  0.00218518771117373 0.000212807131193887
  0.0596455534187885 0.000700496058112043    0.001620285887252    9.61394808347e-05  0.00175339937020387 0.000200140059914332
  0.0605402367200703 0.000711003498983702   0.0013559273304395    8.52010306299e-05  0.00146338749232117 0.000188237448765835
  0.0614483402708714 0.000721668551468468   0.0013356005654788    8.27309616303e-05  0.00133653063051668 0.000177052235070818
  0.0623700653749344 0.000732493579740511   0.0014955789594291    8.95623543965e-05  0.00135557647955477 0.000166540336165921
  0.0633056163555585 0.000743480983436596   0.0014961585734967    8.99466438232e-05  0.00147082524729068 0.000156660453287445
  0.0642552006008918  0.00075463319818817   0.0016717129124948    9.88495638621e-05  0.00161416027841201  0.00014737388903309
  0.0652190286099052 0.000765952696160979   0.0017083053002049   0.0001015413799027  0.00171737736548279 0.000138644377399244
  0.0661973140390538 0.000777441986603404   0.0017687528923609   0.0001019563944781  0.00173002981045411 0.000130437925472486
  0.0671902737496396 0.000789103616402426   0.0017096377402093    9.93147662895e-05  0.00163200061725975 0.000122722665926445
  0.0681981278558842 0.000800940170648468    0.001502165906536    9.01338953584e-05  0.00143731470777425 0.000115468719541531
  0.0692210997737224 0.000812954273208213    0.001296089764562    7.96555876644e-05  0.00118806241068513 0.000108648067025791
  0.0702594162703283  0.00082514858730634   0.0009330365565653    6.27934002728e-05 0.000940170746769809 0.000102234429470821
  0.0713133075143832 0.000837525816115915   0.0007582024156373    5.52025465244e-05 0.000745343235933164  9.6203156827677e-05
  0.0723830071270989 0.000850088703357659   0.0006369633020126    4.95168091628e-05 0.000634915587009562 9.05311238345474e-05
  0.0734687522340054 0.000862840033908042   0.0006141666756726    4.68509951878e-05 0.000610969748332784 8.51966328709498e-05
  0.0745707835175154 0.000875782634416638   0.0006203618234778    4.73528410326e-05 0.000647704145202716 8.01793232526681e-05
  0.0756893452702782 0.000888919373932893    0.000700218693008     5.0644717624e-05  0.00070244826590117 7.54600865179517e-05
  0.0768246854493324 0.000902253164541872   0.0007101293209141    5.05077912039e-05 0.000732146995710155 7.10209872888923e-05
  0.0779770557310723 0.000915786962010043   0.0007293441562734      5.075966675e-05 0.000709057330682874 6.68451893225848e-05
  0.0791467115670384  0.00092952376644017   0.0005609186847461     4.4325619677e-05 0.000629716255147556 6.29168863949894e-05
   0.080333912240544 0.000943466622936766   0.0005210543504192     4.0945457353e-05 0.000513929928385292 5.92212376864713e-05
  0.0815389209241521 0.000957618622280808    0.000377591511739     3.4762447483e-05 0.000394595181819031 5.57443073620142e-05
