# intensity: 0.858873144083232
# background: 0
#           Q (1/A)             dQ (1/A)                    R                   dR               theory              fresnel
  0.0079921268598835 9.40519315655745e-05    0.959352659111254   0.0863329197721766    0.858873144083231    0.858873144083232
  0.0081120087627818 9.54627105390213e-05    0.977761005331445   0.0782685578600449    0.858873144083231    0.858873144083231
  0.0082336888942235 9.68946511971489e-05    0.666208624918063   0.0668104430386138    0.858873144083232    0.858873144083232
  0.0083571942276368 9.83480709650638e-05    0.901028432507553   0.0697023985696759    0.858873144083232    0.858873144083232
  0.0084825521410514 9.98232920295745e-05    0.916843704401216   0.0689288296500538    0.858873144083232    0.858873144083232
  0.0086097904231672     0.00010132064141    0.964071254137183   0.0675588560352873    0.858873144083232    0.858873144083232
  0.0087389372795147 0.000102840451031149    0.960485284908037   0.0634193195824152    0.858873144083232    0.858873144083232
  0.0088700213387074 0.000104383057796638    0.880057042236732   0.0578794225996152    0.858873144083232    0.858873144083232
   0.009003071658788 0.000105948803663574    0.960240302722626   0.0552449516133114    0.858873144083232    0.858873144083232
  0.0091381177336698 0.000107538035718511     0.90941001583039    0.052826290269249    0.858873144083232    0.858873144083232
  0.0092751894996749 0.000109151106254298    0.941426978290359   0.0527185011694044    0.858873144083232    0.858873144083232
    0.00941431734217 0.000110788372848128    0.953643949461354   0.0477218203495499     0.85887314408323    0.858873144083232
  0.0095555321023025 0.000112450198440851    0.978014290043151   0.0521279932425401    0.858873144083227    0.858873144083231
  0.0096988650838371  0.00011416783083583    0.869401348939724   0.0484809803214012    0.858873144083229    0.858873144083232
  0.0098443480600946 0.000115880348298383    0.901976598628091   0.0793650632334033    0.858873144083231    0.858873144083232
   0.009992013280996 0.000117618553522851    0.830661271521954   0.0801286030407704    0.858873144083231    0.858873144083232
   0.010141893480211 0.000119382831825702    0.925207440102119   0.0749050673474841    0.858873144083232    0.858873144083232
  0.0102940218824141 0.000121173574303064    0.901273559993184   0.0714618678883406    0.858873144083232    0.858873144083232
  0.0104484322106503 0.000122991177917617     1.08565673491723   0.0760980788073943    0.858873144083232    0.858873144083232
  0.0106051586938101 0.000124836045586383    0.912413426761278   0.0652190195696624    0.858873144083231    0.858873144083232
  0.0107642360742173  0.00012670858627017    0.777662203264577   0.0597506032110479    0.858873144083231    0.858873144083232
  0.0109256996153305 0.000128609215064213     0.85416867009807   0.0566460330111272    0.858873144083232    0.858873144083232
  0.0110895851095605  0.00013053835329017    0.733322688810685   0.0513855854121584    0.858873144083232    0.858873144083231
  0.0112559288862039 0.000132496428589532    0.599144591879691   0.0471278619651368    0.858873144083232    0.858873144083231
  0.0114247678194969 0.000134483875018383    0.765845445818249   0.0488277346406301    0.858873144083232    0.858873144083231
  0.0115961393367894  0.00013650113314366      0.9025139585068   0.0511502184223812    0.858873144083232    0.858873144083231
  0.0117700814268412 0.000138548650140809    0.865159342203867   0.0610307839983628    0.858873144083231    0.858873144083231
  0.0119466326482438 0.000140588843992383    0.949994430692119   0.0600199350647557    0.858873144083231    0.858873144083231
  0.0121258321379675 0.000142697676652255    0.994219929084761    0.112507543460286    0.858873144083231    0.858873144083231
   0.012307719620037 0.000144838141802043    0.939756012610899    0.104394746411021    0.858873144083231    0.858873144083232
  0.0124923354143376 0.000147010713929064    0.850502243602394   0.0946497075822084    0.858873144083231    0.858873144083232
  0.0126797204455526    0.000149215874638    0.937932740904165    0.096313890321653    0.858873144083231    0.858873144083232
  0.0128699162522359 0.000151454112757574    0.953475820512689   0.0950700467841092    0.858873144083232    0.858873144083231
  0.0130629649960195 0.000153725924448936    0.913007322999472   0.0908836420709694    0.858873144083232    0.858873144083232
  0.0132589094709597 0.000156031813315702    0.942869569376723   0.0893941204244186    0.858873144083232    0.858873144083232
  0.0134577931130241 0.000158372290515404    0.974260719848404   0.0898724074259334    0.858873144083231    0.858873144083232
  0.0136596600097195 0.000160747874873149    0.911630485243784   0.0858435451173232    0.858864102223452    0.858742812523097
  0.0138645549098653 0.000163159092996255    0.981411404554406   0.0870842425838354    0.858551234019908    0.854507256850041
  0.0140725232335133 0.000165606479391191    0.984575262316618   0.0846687039227537    0.855325118691787     0.81652738622899
   0.014283611082016 0.000168090576582085    0.851260999310404   0.0745762433387665    0.841478141455739    0.685609835765432
  0.0144978652482462 0.000170611935230809    0.820232369649995   0.0698815356359592    0.813491615128375    0.486971428664157
  0.0147153332269699 0.000173171114259277    0.720186637438975   0.0621753469759958    0.779590467933184    0.341717409538987
  0.0149360632253744 0.000175768680973149    0.734847762638329   0.0620195319176605    0.741977617131481    0.264372659955025
  0.0151601041737551 0.000178405211187745    0.700077479935467   0.0588293821955902    0.697716432181964     0.21642559897679
  0.0153875057363614 0.000181081289355574    0.612270792086059   0.0524156260915706    0.645318200778466    0.182004772298029
  0.0156183183224068 0.000183797508695872    0.502072505327924   0.0306104134842339    0.584855640085427    0.155686679131983
  0.0158525930972429  0.00018655447132634    0.471139159574142   0.0284808691637709    0.517902361985628    0.134820122622046
  0.0160903819937015 0.000189404017239319    0.431994505990859   0.0362209410551845    0.447488845953673    0.117857303905729
  0.0163317377236071 0.000192245077497915    0.324511911943238   0.0289186384133375    0.377595764790876    0.103807894018943
  0.0165767137894612 0.000195128753660383    0.303047781947692   0.0262831404101458    0.312209120137698   0.0920019798473141
  0.0168253644963031 0.000198055684965277    0.278181687187118   0.0246269067997413    0.254322083387641   0.0819647042813982
  0.0170777449637476 0.000201026520239745    0.189921784441506   0.0199355551438219    0.205349393260837   0.0733483846967688
  0.0173339111382038 0.000204041918043362     0.14241892052721    0.015492511561257    0.165164966101121   0.0658915595844479
  0.0175939198052769    0.000207102546814    0.142254538849113   0.0147787307895274    0.132606205556714   0.0593932539960051
   0.017857828602356 0.000210209085016213    0.105203065507134   0.0134983032660467    0.106113504428349   0.0536961319274479
  0.0181256960313914 0.000213362221291447   0.0697558887943671   0.0105480062175138   0.0842417546740505   0.0486750888833197
  0.0183975814718623 0.000216562654610809   0.0561097438733768   0.0087464342354244   0.0659450513495333   0.0442293066080963
  0.0186735451939402     0.00021981109443   0.0396436506045826   0.0079208994801057   0.0506567437618159   0.0402765842960501
  0.0189536483718493 0.000223108260846426   0.0390949590360577   0.0067964348461589   0.0382300966580556   0.0367492089815872
   0.019237953097427 0.000226454884759149   0.0203348004228777   0.0044344045443101   0.0288010311654782   0.0335908920205081
  0.0195265223938884 0.000229851708030511   0.0252755598710645   0.0050944630641271   0.0226192346618075    0.030754459734355
  0.0198194202297968 0.000233299483650979   0.0101186812822384   0.0042397496414725   0.0198833488742571   0.0282000875919957
  0.0201167115332437 0.000236798975905745   0.0213632262192617   0.0044568953543334   0.0206097916100896   0.0258939326780439
  0.0204184622062424  0.00024035096054434   0.0276531706880829   0.0051923466918152   0.0245571349906789   0.0238070623835037
   0.020724739139336 0.000243956224952468   0.0259381848372337   0.0055091571521326    0.031215264047353   0.0219146063816425
   0.021035610226426 0.000247615568326766   0.0470589201056769   0.0063374054545709   0.0398526881585523   0.0201950789685274
  0.0213511443798224  0.00025132980185166   0.0498485299418204    0.006315488582682   0.0496021028403837   0.0186298328373806
  0.0216714115455197 0.000255099748879447   0.0503899884348969   0.0061223475892484   0.0595587475756663   0.0172026152846383
  0.0219964827187025 0.000258926245112638    0.075775321126568   0.0070077135784716    0.068869366398368   0.0158992049916677
  0.0223264299594831 0.000262810138789319    0.070045802569237    0.006780884672307   0.0767985367609924   0.0147071127358737
  0.0226613264088753 0.000266752290871191   0.0910439078373452    0.007585178069949    0.082769024320705   0.0136153332282105
  0.0230012463050085 0.000270753575234255    0.088460517116932   0.0042678308268021   0.0863800159554622   0.0126141381404918
  0.0233462649995836 0.000274814878862766   0.0850417325697336    0.003952892878778   0.0874102740834186   0.0116949025453974
  0.0236964589745773 0.000278937102045702   0.0832687251887954    0.003862586874678   0.0858130131985518   0.0108499586343832
   0.024051905859196 0.000283121158576383     0.08567799361558   0.0040547574688452   0.0817069909917963    0.010072471838712
  0.0244126844470839 0.000285589001957787   0.0728875775395526   0.0031914816015951   0.0753705957180311  0.00935583780358368
  0.0247788747137902 0.000289872836987149   0.0677508109857383   0.0029459926099161   0.0672027782424144  0.00869562410212755
   0.025150557834497 0.000294220929541957   0.0552386815284451   0.0024589299700132   0.0577415396889208  0.00808637987885891
  0.0255278162020145 0.000298634243485106   0.0482839794204103   0.0021840115245077   0.0476026204423406  0.00752369156172421
  0.0259107334450447 0.000303113757137362   0.0380292077891155    0.001805719174639   0.0374428991821001   0.0070035823289085
  0.0262993944467204 0.000307660463494425   0.0269254844996092   0.0013719828363006   0.0279050151615875  0.00652246236502908
  0.0266938853634212 0.000312275370446851   0.0209426415944552    0.001151640292346   0.0195566186596844  0.00607708561024178
  0.0270942936438725 0.000316959501003574    0.013458424506409   0.0008601726802953   0.0128335862775253  0.00566451204179653
  0.0275007080485306 0.000321713893518596    0.009242792897109   0.0006591590098304  0.00799795911050662  0.00528207468648179
  0.0279132186692585 0.000326539601921404   0.0049134761796699   0.0005153186030348  0.00511934906086028  0.00492735069225954
  0.0283319169492974 0.000331437695950213    0.004168731370886   0.0005005390074748  0.00408342731868149  0.00459813589401703
  0.0287568957035369 0.000336409261389447   0.0053744463569496   0.0004910243443424  0.00462466358075034  0.00429242239629293
  0.0291882491390899 0.000341455400310298    0.006566286980133   0.0005520596468143  0.00637514917634027  0.00400837876864909
  0.0296260728761763 0.000346577231314979   0.0085194101811572   0.0006280890881457  0.00891890332220497   0.0037443325099027
  0.0300704639693189 0.000351775889784681   0.0122721148051846    0.000752126584641   0.0118418894911566  0.00349875448796312
  0.0305215209288587 0.000357052528131447      0.0159076287477   0.0008833656879523   0.0147710889910448  0.00327024510434137
  0.0309793437427915 0.000362408316053404   0.0177735816972228    0.000951296522311   0.0173998494300551   0.0030575219679831
  0.0314440338989334 0.000367844440794213    0.019695731075633   0.0010187486686665   0.0195000386089252   0.0028594088930808
  0.0319156944074174 0.000373362107406128   0.0214969067898799   0.0010963144554278   0.0209236266197717  0.00267482606091433
  0.0323944298235287 0.000378962539017234   0.0227197038896666   0.0011323215117368   0.0215971404837488  0.00250278120731658
  0.0328803462708816 0.000384646977102511   0.0229336382648062   0.0011623726432437   0.0215122863197092  0.00234236171570795
  0.0333735514649448 0.000390416681759021   0.0199654879104709   0.0010502562907449   0.0207153019688476  0.00219272751130191
   0.033874154736919 0.000396272931985404   0.0180931782384039   0.0009603303656931   0.0192966186863994  0.00205310466549134
  0.0343822670579728 0.000402217025965191   0.0183473449511538   0.0009848072895454   0.0173814138229657  0.00192277963093022
  0.0348980010638424 0.000408250281354681   0.0150965800195732   0.0008454839446888   0.0151208015049259  0.00180109403772647
     0.0354214710798 0.000414374035574979   0.0134364988737236   0.0007613705031108   0.0126828723396019  0.00168743998970195
   0.035952793145997 0.000420589646108596    0.011216681439234   0.0006694922246578   0.0102426596267408  0.00158125580705916
  0.0364920850431869 0.000426898490800255   0.0084633669638673   0.0005591857331122  0.00797042286456591  0.00148202216819392
  0.0370394663188347 0.000433301968162255   0.0061380989423308   0.0004603625003647  0.00601834585817412  0.00138925860895022
  0.0375950583136173 0.000439801497684681    0.005182791140308   0.0004201361376611  0.00450666880382731  0.00130252034245142
  0.0381589841883215 0.000446398520149957    0.003479969156666   0.0003222948722776  0.00351112516850701  0.00122139536686036
  0.0387313689511463 0.000453094497952213   0.0030903406677309   0.0003134846217674  0.00305401366718486  0.00114550183210793
  0.0393123394854135 0.000459890915421489   0.0032915203044359   0.0003344429186417  0.00310106470000299   0.0010744856398584
  0.0399020245776947 0.000466789279152809   0.0039284010042373   0.0003528162275371   0.0035654176470976  0.00100801825381117
  0.0405005549463601 0.000473791118340085   0.0047540596183017   0.0003918687552453  0.00431871037130028 0.000945794699927901
  0.0411080632705555 0.000480897985115191   0.0051370523696158   0.0004124980393074  0.00520787258215714 0.000887531738364925
  0.0417246842196139 0.000488111454891915   0.0063956487896406   0.0004570892728538  0.00607511440974322  0.00083296619082326
  0.0423505544829081 0.000495433126715319    0.006968022854751   0.0004846363620843  0.00677808137473442 0.000781853408735436
  0.0429858128001517 0.000502864623616043   0.0068710724485851   0.0004765680859277  0.00720725976924333 0.000733965869218463
   0.043630599992154 0.000510407592970298   0.0071400134207317    0.000483081232428  0.00729832279683919 0.000689091887060778
  0.0442850589920363 0.000518063706864851   0.0073926067995922   0.0005015781866982   0.0070379794224566 0.000647034432198512
  0.0449493348769168 0.000525834662467787   0.0063538819113983   0.0002780430659323  0.00646282011929282 0.000607610043192098
  0.0456235749000706 0.000536367095156298   0.0053044152334242   0.0002513387861521   0.0056513421966262 0.000570668732838694
  0.0463079285235716 0.000541728015140894    0.004380253551635   0.0002148533420903  0.00471160605407627 0.000535988545415116
  0.0470025474514252    0.000549853935368    0.003490639586135   0.0001899476562186  0.00376244132372701 0.000503483756967108
  0.0477075856631966 0.000558101744398511   0.0028109238291345   0.0001633640033771  0.00291708214065456 0.000472995048381481
  0.0484231994481445 0.000569280484553532   0.0023872995380564   0.0001583481913071  0.00226643458325487 0.000444409433117042
  0.0491495474398667 0.000574970369622979   0.0017658255686683   0.0001278347901927  0.00186121293883555 0.000417558070798903
  0.0498867906514647 0.000583594925167319   0.0016425670218435   0.0001240553306545  0.00171563368438629 0.000392376890543403
  0.0506350925112366 0.000592348849044808   0.0019833033944918   0.0001353446179897  0.00179753483642343 0.000368744788817169
  0.0513946188989052 0.000604213556387234   0.0019706473626359   0.0001101240605957  0.00204146365353874 0.000346576192748236
  0.0521655381823887 0.000613276759733064   0.0022572684705687   0.0001217419713218  0.00235988242679872 0.000325753806655048
  0.0529480212551246 0.000622475911129064   0.0026953588394947   0.0001389628663347    0.002662015767133 0.000306205340144162
  0.0537422415739514    0.000631813049796   0.0026577325667438   0.0001357752269871  0.00286867546525355 0.000287850802012708
  0.0545483751975607 0.000641290245542936   0.0029357578979801    0.000146845332265  0.00292657218900688  0.00027061540930121
  0.0553666008255241 0.000650909599226085   0.0028516091459582   0.0001433652071505  0.00281666634356226 0.000254429231275328
   0.056197099837907 0.000660673243214468   0.0025486258251765   0.0001303841057779  0.00255562203178287 0.000239226859298552
  0.0570400563354756 0.000670583341862681   0.0020814282165234   0.0001095064640665  0.00219017552521665 0.000224947100568725
  0.0578956571805077 0.000680642091990638   0.0017544156789624    9.48592517998e-05   0.0017856046661408 0.000211532693863455
  0.0587640920382153 0.000690851723370468   0.0014041422877871    8.01851668164e-05  0.00141071994858631 0.000198930045595857
  0.0596455534187885 0.000701214499221021   0.0010381149255039    6.38614623362e-05  0.00112262670499005 0.000187088984624065
  0.0605402367200703 0.000711732716709362   0.0008772175446359    5.72161846688e-05 0.000954674310217512 0.000175962534387027
  0.0614483402708714     0.00072240870746   0.0008902525910557     5.8327020969e-05 0.000910363560789946 0.000165506701056588
  0.0623700653749344 0.000733244838071872   0.0008843144877284    5.68833033404e-05 0.000964591440290969 0.000155680276502825
  0.0633056163555585 0.000744243510642979   0.0010121847802936    6.24564335232e-05  0.00107178868772151 0.000146444654967054
  0.0642552006008918 0.000755407163302596   0.0012769167537767    7.37525509459e-05  0.00117874122245364 0.000137763662425937
  0.0652190286099052  0.00076673827075217   0.0012606340758339    7.39209666389e-05  0.00123868400007938 0.000129603397711163
  0.0661973140390538 0.000778239344813447   0.0012481324880561    7.30427458423e-05  0.00122295743627444 0.000121932084523487
  0.0671902737496396  0.00078991293498566   0.0011785377454649    6.87392225981e-05  0.00112720607708544  0.00011471993354756
  0.0681981278558842 0.000801761629010426   0.0010421726953959    6.35535604428e-05 0.000970600417383256  0.00010793901393612
  0.0692210997737224 0.000813788053445574   0.0007479360213952    4.98941592875e-05 0.000788498070714916 0.000101563133488846
  0.0702594162703283 0.000825994874247277   0.0006168591241885     4.3566598002e-05 0.000620828955628657  9.5567726903224e-05
  0.0713133075143832 0.000838384797360979   0.0005176486963021    3.96196506187e-05 0.000499759234796067  8.9929751522488e-05
  0.0723830071270989 0.000850960569321404    0.000461750955097    3.65063718756e-05 0.000440428687042241 8.46275900494312e-05
  0.0734687522340054 0.000863724977861191   0.0004402513938341     3.4377536128e-05 0.000437598068798975 7.96409597351055e-05
  0.0745707835175154 0.000876680852529106   0.0004756193251552    3.58024078335e-05 0.000469111096254388 7.49508275882996e-05
  0.0756893452702782 0.000889831065317064   0.0004753715842974    3.57970510379e-05  0.00050477862149512 7.05393311856202e-05
  0.0768246854493324 0.000903178531296808   0.0005191360833786    3.78302725614e-05 0.000517434015168553 6.63897046932238e-05
  0.0779770557310723 0.000916726209266255   0.0004653765066443    3.52588681986e-05 0.000492182520726253 6.24862097399338e-05
  0.0791467115670384 0.000930477102405277   0.0004007441078251    3.15532098416e-05 0.000430578475853843 5.88140708079428e-05
   0.080333912240544 0.000944434258941362   0.0003629840816625    2.96825619585e-05 0.000348396042562033 5.53594148316592e-05
  0.0815389209241521 0.000958600772825447   0.0002212081537038    2.34662671234e-05 0.000268125269161082 5.21092147177135e-05
