# intensity: 0.91074714573511
# background: 0
#           Q (1/A)             dQ (1/A)                    R                   dR               theory              fresnel
  0.0079921268598835 9.38113895411064e-05     1.02847366335677   0.0831740543453834     0.91074714573511     0.91074714573511
  0.0081120087627818 9.52185603842128e-05    0.928408498798101   0.0760394701540307     0.91074714573511     0.91074714573511
  0.0082336888942235 9.66468387899574e-05    0.934035400977968   0.0757376636257944     0.91074714573511     0.91074714573511
  0.0083571942276368 9.80965413718298e-05    0.812265566968785   0.0680769983796665     0.91074714573511     0.91074714573511
  0.0084825521410514  9.9567989492383e-05    0.974782484517906    0.068264781969646     0.91074714573511     0.91074714573511
  0.0086097904231672 0.000101061509334766    0.931879994458868   0.0656434932593086     0.91074714573511     0.91074714573511
  0.0087389372795147 0.000102577431974809    0.830644605879561   0.0587763244247926     0.91074714573511     0.91074714573511
  0.0088700213387074 0.000104116093454426    0.839277169080692   0.0554303051979214     0.91074714573511     0.91074714573511
   0.009003071658788 0.000105677834856255    0.949220568191229   0.0538915898193354     0.91074714573511     0.91074714573511
  0.0091381177336698 0.000107263002379106     0.98847340264326   0.0539052832321451     0.91074714573511     0.91074714573511
  0.0092751894996749 0.000108871947414766    0.944433756892794   0.0507032123593141     0.91074714573511     0.91074714573511
    0.00941431734217    0.000110505026626      0.9551854213736   0.0472988236477749     0.91074714573511     0.91074714573511
  0.0095555321023025 0.000112162602025404    0.989653101000117   0.0530403322233908     0.91074714573511     0.91074714573511
  0.0096988650838371 0.000114136951417447    0.967835784210508   0.0482191437975537    0.910747145735111     0.91074714573511
  0.0098443480600946 0.000115849005688723     1.05615108917822   0.0859105738900572    0.910747145735111     0.91074714573511
   0.009992013280996 0.000117586740774043    0.882175077467263   0.0745181344259856     0.91074714573511     0.91074714573511
   0.010141893480211  0.00011935054188566     1.05787658592863   0.0818670025834556     0.91074714573511     0.91074714573511
  0.0102940218824141 0.000121140800013957    0.925581615123772   0.0695488998084501     0.91074714573511     0.91074714573511
  0.0104484322106503 0.000122957912014128     0.98093891720072   0.0719780961612023     0.91074714573511     0.91074714573511
  0.0106051586938101  0.00012480228069434    0.844204125670307   0.0645447091960466     0.91074714573511     0.91074714573511
  0.0107642360742173 0.000126674314904766    0.837921365473975   0.0591075106016905     0.91074714573511     0.91074714573511
  0.0109256996153305  0.00012857442962834    0.855502016835848   0.0560360885888503     0.91074714573511     0.91074714573511
  0.0110895851095605 0.000130503046072766    0.898310481353079   0.0575042649306722     0.91074714573511     0.91074714573511
  0.0112559288862039 0.000132460591763872    0.755630768908517   0.0491016770582716     0.91074714573511     0.91074714573511
  0.0114247678194969  0.00013444750064034     0.78833397953916   0.0503312436608586    0.910747145735111     0.91074714573511
  0.0115961393367894 0.000136464213149915    0.782101266159428   0.0459112047224795    0.910747145735111     0.91074714573511
  0.0117700814268412 0.000138511176347191    0.993651291441046   0.0661578101452445     0.91074714573511     0.91074714573511
  0.0119466326482438 0.000140626879892936    0.971372715509826   0.0614436580509049    0.910747145735111     0.91074714573511
  0.0121258321379675 0.000142736283091319    0.943914489097888    0.109172025228969    0.910747145735111     0.91074714573511
   0.012307719620037 0.000144877327337702      1.0890771189677    0.115449469669671    0.910747145735112     0.91074714573511
  0.0124923354143376 0.000147050487247745     1.09222590694657    0.113815029592721    0.910747145735114     0.91074714573511
  0.0126797204455526 0.000149256244556468    0.940925594843684    0.101089457773803    0.910747145735111     0.91074714573511
  0.0128699162522359 0.000151495088224809    0.956918804516529   0.0984589192381611     0.91074714573511     0.91074714573511
  0.0130629649960195 0.000153767514548213     0.89158176112952   0.0883708726685648     0.91074714573511     0.91074714573511
  0.0132589094709597 0.000156074027266426    0.893101520233287   0.0862011972540819     0.91074714573511     0.91074714573511
  0.0134577931130241 0.000158415137675404    0.846237558459994   0.0825730242021414     0.91074714573511     0.91074714573511
  0.0136596600097195 0.000160791364740553      0.8918767153074    0.082043092957254    0.910736214794175    0.910608615472168
  0.0138645549098653  0.00016320323521166     1.03217661676776   0.0890408307087013     0.91036348514854    0.906112637562069
  0.0140725232335133  0.00016565128373983     1.04558630997568   0.0887570421111257    0.906629572677619     0.86582637787228
   0.014283611082016 0.000168136052995915    0.883884097507688   0.0755536308208833    0.891266441817542    0.727004610561325
  0.0144978652482462 0.000170658093790851    0.879309900149047   0.0737646126142282    0.861942351160067    0.516396099861844
  0.0147153332269699 0.000173217965197745    0.850711499688699   0.0711393197514243     0.82955164008568    0.362369511632974
  0.0149360632253744 0.000175816234675702    0.835213972153236   0.0679551333717443    0.796845451529509    0.280345225906855
  0.0151601041737551  0.00017845347819583    0.780389557241887    0.063440542604688    0.760244251318488    0.229499678347213
  0.0153875057363614 0.000181130280368766    0.687808399979324   0.0400399204669415    0.717608496871963    0.192998976123249
  0.0156183183224068 0.000183847234574298    0.694358798903179   0.0391081203908221    0.667954618110073    0.165090847612857
  0.0158525930972429 0.000186604943092894    0.570065533397795   0.0327733606272873     0.61118751834994    0.142963710791408
  0.0160903819937015 0.000189506558129362    0.600841618748417   0.0464579474893433     0.54827052220071    0.124976762190372
  0.0163317377236071 0.000192349156501319     0.45349075710375   0.0376565761471965    0.481323850732624    0.110078544360792
  0.0165767137894612 0.000195234393848809    0.375162642694228   0.0313646820660307    0.413404286037859    0.097559397237458
  0.0168253644963031 0.000198162909756553    0.314659936485917   0.0281524899445941     0.34793711029791   0.0869157582920367
  0.0170777449637476 0.000201135353402894    0.314939545990619   0.0267221280414951    0.287941859591339   0.0777789305140626
  0.0173339111382038 0.000204152383703957    0.233536011396916   0.0210984595906849     0.23538441976605   0.0698716511212097
  0.0175939198052769 0.000207214669459532    0.218376357096371   0.0204562620769713    0.190925474442668   0.0629808004121328
   0.017857828602356 0.000210322889501404     0.16522627524099   0.0161770956768518    0.154110861742497   0.0569395353384594
  0.0181256960313914 0.000213477732843915    0.128770517632475    0.013697932400855    0.123832634872815   0.0516151923606769
  0.0183975814718623 0.000216679898836596   0.0836485091671567   0.0111944728206938   0.0988245302914904   0.0469008618660504
  0.0186735451939402 0.000219930097319149   0.0628350567721761    0.009901565829196    0.078028303041137   0.0427093767230173
  0.0189536483718493 0.000223229048778936    0.057953408220725   0.0086611216247652   0.0607774381701307   0.0389689330761716
   0.019237953097427 0.000226577484510596   0.0479589389424171   0.0071225494097013   0.0468188669095898   0.0356198416811752
  0.0195265223938884 0.000229976146778255   0.0418927707473684   0.0065131383880956   0.0362204911422022    0.032612078990085
  0.0198194202297968 0.000233425788979957   0.0330778557390833   0.0052804839188464    0.029213782091147   0.0299034146266922
  0.0201167115332437 0.000236927175814638   0.0293905962519621   0.0048473048075469   0.0260161947045348   0.0274579612204724
  0.0204184622062424 0.000240481083451872   0.0245193994619394   0.0045596538777397   0.0266738787415424    0.025245038364846
   0.020724739139336 0.000244088299703617   0.0302819792803355   0.0052062299010803   0.0309579377071055   0.0232382733541277
   0.021035610226426 0.000247749624199191   0.0439037690818395   0.0057527150972352    0.038333257674867   0.0214148825800667
  0.0213511443798224  0.00025146586856217    0.052640462003948   0.0060219552684475   0.0479989827443918   0.0197550923042744
  0.0216714115455197 0.000255237856590596   0.0551484257595058   0.0062642898096506   0.0589808591756149    0.018241668051716
  0.0219964827187025 0.000259066424439489   0.0719995400596723   0.0071735748091694   0.0702454467670007   0.0168595294484353
  0.0223264299594831 0.000262952420806043   0.0904027023862173   0.0080020024671202   0.0808076002713527    0.015595432851327
  0.0226613264088753  0.00026689670711817    0.112598510276736   0.0090907411293346   0.0898126758249744   0.0144377081933354
  0.0230012463050085 0.000270900157724936   0.0997454947408438   0.0047341930777998   0.0965874824036853   0.0133760395070508
  0.0233462649995836 0.000274963660090808    0.101209846546992   0.0046768273410931    0.100663782738917   0.0124012808796872
  0.0236964589745773  0.00027908811499217   0.0967766793019164    0.004409578599464    0.101782859900995   0.0115053013339747
   0.024051905859196 0.000283274436717021    0.102294772056589    0.004737305886484   0.0998897457131167   0.0106808534656478
  0.0244126844470839 0.000287212566915149   0.0961896497475776   0.0041677101105958   0.0951245499842902  0.00992141238798001
  0.0247788747137902 0.000291520755418894   0.0895538186302122   0.0038728911590694   0.0878024872639575  0.00922128177075227
   0.025150557834497  0.00029589356675017   0.0754876159661572   0.0033121411210278   0.0784073852385799   0.0085752029768716
  0.0255278162020145 0.000300331970251404   0.0649551241393654   0.0029160854680075   0.0675583252656359  0.00797849543999769
  0.0259107334450447 0.000304836949805191   0.0537163605463209   0.0024670688800528   0.0559727776924823  0.00742694177612181
  0.0262993944467204 0.000309409504052255   0.0459409760837217   0.0021765823946714   0.0444126446069458  0.00691673502766859
  0.0266938853634212 0.000314050646613064   0.0329954104483353    0.001682729059294   0.0336172207771095  0.00644443279391431
  0.0270942936438725 0.000318761406312255   0.0262166371322014   0.0014032727726673    0.024230687375275  0.00600691722902342
  0.0275007080485306 0.000323542827406936   0.0171397295621901   0.0010533069733989   0.0167362347135369   0.0056013600575499
  0.0279132186692585 0.000328395969818043    0.011202401202063   0.0008105651492157   0.0114100524498863  0.00522519189499061
  0.0283319169492974 0.000333321909365319    0.007713683149037   0.0006666304573855  0.00830501790263287     0.00487607527407
  0.0287568957035369 0.000338321738005787   0.0074377486901639   0.0006433893212382  0.00726681087576443  0.00455188087069941
  0.0291882491390899 0.000343396564075872    0.008274738130343    0.000665532686578  0.00797710028026356  0.00425066650078348
  0.0296260728761763 0.000348547512537021    0.009930583181033   0.0007277315605429   0.0100125389956093  0.00397065852326005
  0.0300704639693189 0.000353775725225064   0.0140262817068633   0.0008818699222953   0.0129064920588337  0.00371023533835287
  0.0305215209288587 0.000359082361103447   0.0161635158144554   0.0009579226635139   0.0162026136433705  0.00346791271490544
  0.0309793437427915     0.00036446859652    0.019920847910345   0.0011049911240971   0.0194939335109123   0.0032423307184036
  0.0314440338989334 0.000369935625467787   0.0234967392896289   0.0012379568582011   0.0224459637451262  0.00303224204311794
  0.0319156944074174 0.000375484659849787   0.0243354187919246   0.0012761652434425   0.0248060082927772  0.00283650157872873
  0.0323944298235287 0.000381116929747532   0.0264351332873409   0.0013496379260256   0.0264027755863866  0.00265405706464982
  0.0328803462708816 0.000386833683693787   0.0268087268405783   0.0013931798191185    0.027140701065976  0.00248394070472572
  0.0333735514649448 0.000392636188949191   0.0269277719069581    0.001393923881345   0.0269925665349837  0.00232526163158369
   0.033874154736919 0.000398525731783404   0.0242663086131574   0.0012593269873668   0.0259925880359802  0.00217719912414185
  0.0343822670579728  0.00040450361776017   0.0237315335867185   0.0012569864632765   0.0242305773449279  0.00203899649397639
  0.0348980010638424 0.000410571172026553   0.0233475884634525   0.0012350801207071   0.0218464059098671  0.00190995556675129
     0.0354214710798 0.000416729739606979   0.0189574372300318   0.0010447761104441   0.0190230795485863  0.00178943169397177
   0.035952793145997 0.000422980685701064    0.016952832810491   0.0009481167275989    0.015976469136352   0.0016768292381532
  0.0364920850431869 0.000429325395986596   0.0133963445037662    0.000828144438808   0.0129402493829747  0.00157159748128438
  0.0370394663188347 0.000435765276926383   0.0110774098332557   0.0007288566358041   0.0101458376316299  0.00147322691235747
  0.0375950583136173 0.000442301756080255   0.0085342354521272   0.0006198988770119  0.00779884538934277  0.00138124585486769
  0.0381589841883215 0.000448936282421489   0.0059511008671926   0.0004878854098644  0.00605527550268232  0.00129521739965989
  0.0387313689511463 0.000455670326657787   0.0048503989287555   0.0004272907063978  0.00500180313461214   0.0012147366124089
  0.0393123394854135  0.00046250538155766   0.0046683042054169   0.0004327356625593  0.00464444219164553  0.00113942798844519
  0.0399020245776947 0.000469442962281021   0.0051438476692892   0.0004486359794609  0.00490854510067902  0.00106894313063962
  0.0405005549463601 0.000476484606715234    0.005415510774464   0.0004831291875693  0.00565073962950794  0.00100295862870151
  0.0411080632705555    0.000483631875816   0.0070203114894004   0.0005451058745507  0.00668081027350316 0.000941174120567469
  0.0417246842196139 0.000490886353953234   0.0075895684817359   0.0005534825687464  0.00778951651699835 0.000883310518607916
  0.0423505544829081 0.000498249649262511   0.0096312118795284   0.0006390047661116  0.00877746435671379 0.000829108385188408
  0.0429858128001517 0.000505723394001447   0.0093744507888501   0.0006266598156806  0.00948048865308895 0.000778326443724391
   0.043630599992154 0.000513309244911489   0.0098528904414669   0.0006585799901668  0.00978821428934993 0.000730740212787468
  0.0442850589920363 0.000521008883585149   0.0088505286946945   0.0006119153248886  0.00965401125091329 0.000686140752080655
  0.0449493348769168 0.000527899065249021   0.0089862895404442   0.0003868442065493    0.009096315122741 0.000644315689309928
  0.0456235749000706 0.000536756377091489   0.0078350945507193   0.0003451452587135  0.00818973081613732 0.000605137265253843
  0.0463079285235716 0.000544807722747872   0.0070449356665342   0.0003276539114791  0.00705426550613961 0.000568383149748163
  0.0470025474514252 0.000552012636713617   0.0058058328651393   0.0002821287549105  0.00583268036538208  0.00053389908159967
  0.0477075856631966 0.000561274536167957   0.0045048996306311    0.000250771667587  0.00467287639763866 0.000501582294000063
  0.0484231994481445 0.000569693654210468   0.0037323448209581   0.0002141345914919  0.00370187325312549 0.000471251858233582
  0.0491495474398667 0.000577227676938128   0.0031251740901385    0.000206415460196  0.00301124872911632 0.000442782597936281
  0.0498867906514647 0.000585886092092213   0.0023775620596541   0.0001588580743489    0.002645213702291 0.000416080217753355
  0.0506350925112366 0.000595716334582596   0.0028229461113185    0.000193396167279  0.00259256977511155 0.000391031141367398
  0.0513946188989052 0.000603594499225702   0.0026650661234187   0.0001498437629789  0.00279178146045542 0.000367499472988857
  0.0521655381823887 0.000612648416714085    0.003060017169146   0.0001648509534534  0.00314676758896377 0.000345420024357267
  0.0529480212551246 0.000621838142964808   0.0036618139409081   0.0001893961244739  0.00354161329048369 0.000324691401539136
  0.0537422415739514 0.000631165715109277   0.0036805367110231   0.0001881290847465  0.00386401246749005  0.00030522878439228
  0.0545483751975607 0.000640633200835915   0.0037144576625579   0.0001883252417916  0.00402519751175055 0.000286952875420863
  0.0553666008255241 0.000650242698848468   0.0038845792924218   0.0001968807299898  0.00397536540893887 0.000269789522266543
   0.056197099837907 0.000659996339331191   0.0036350003902937   0.0001855249339527  0.00371130946755482 0.000253669367653376
  0.0570400563354756 0.000669896284421149   0.0031096989135441    0.000161371650453  0.00327475842879042 0.000238527524636965
  0.0578956571805077 0.000679944728687447   0.0025905559949977   0.0001386971147819  0.00274165300543198 0.000224303275190989
  0.0587640920382153 0.000690143899617787   0.0021288636788483   0.0001181595846224  0.00220441542582497  0.00021093979033001
  0.0596455534187885 0.000700496058112043    0.001620285887252    9.61394808347e-05  0.00175088182494712  0.00019838387011806
  0.0605402367200703 0.000711003498983702   0.0013559273304395    8.52010306299e-05  0.00144457460036895 0.000186585702049358
  0.0614483402708714 0.000721668551468468   0.0013356005654788    8.27309616303e-05  0.00131099406184112   0.0001754986364121
  0.0623700653749344 0.000732493579740511   0.0014955789594291    8.95623543965e-05  0.00133338875307074 0.000165078977359655
  0.0633056163555585 0.000743480983436596   0.0014961585734967    8.99466438232e-05  0.00145917055435146  0.00015528578851688
  0.0642552006008918  0.00075463319818817   0.0016717129124948    9.88495638621e-05  0.00161533672682223 0.000146080712043597
  0.0652190286099052 0.000765952696160979   0.0017083053002049   0.0001015413799027  0.00172876349495941 0.000137427800163265
  0.0661973140390538 0.000777441986603404   0.0017687528923609   0.0001019563944781  0.00174581854033094 0.000129293358243617
  0.0671902737496396 0.000789103616402426   0.0017096377402093    9.93147662895e-05  0.00164585966664664 0.000121645798587824
  0.0681981278558842 0.000800940170648468    0.001502165906536    9.01338953584e-05  0.00144485725845973 0.000114455504160591
  0.0692210997737224 0.000812954273208213    0.001296089764562    7.96555876644e-05  0.00118819228749828  0.00010769470153376
  0.0702594162703283  0.00082514858730634   0.0009330365565653    6.27934002728e-05 0.000934907915145652 0.000101337342391197
  0.0713133075143832 0.000837525816115915   0.0007582024156373    5.52025465244e-05  0.00073840087350065 9.53589929833056e-05
  0.0723830071270989 0.000850088703357659   0.0006369633020126    4.95168091628e-05 0.000629801982057759 8.97367309679149e-05
  0.0734687522340054 0.000862840033908042   0.0006141666756726    4.68509951878e-05 0.000609511016416449 8.44490491169087e-05
  0.0745707835175154 0.000875782634416638   0.0006203618234778    4.73528410326e-05 0.000649588143603259  7.9475765407084e-05
  0.0756893452702782 0.000888919373932893    0.000700218693008     5.0644717624e-05 0.000705840804683169 7.47979390496967e-05
  0.0768246854493324 0.000902253164541872   0.0007101293209141    5.05077912039e-05 0.000734914674633428 7.03977920462639e-05
  0.0779770557310723 0.000915786962010043   0.0007293441562734      5.075966675e-05 0.000709901232892129 6.62586358886121e-05
  0.0791467115670384  0.00092952376644017   0.0005609186847461     4.4325619677e-05 0.000628665650952001 6.23648030492192e-05
   0.080333912240544 0.000943466622936766   0.0005210543504192     4.0945457353e-05 0.000512051927608142 5.87015829337339e-05
  0.0815389209241521 0.000957618622280808    0.000377591511739     3.4762447483e-05 0.000393205629744142 5.52551619913605e-05
