# intensity: 0.995618375950666
# background: 0
#           Q (1/A)             dQ (1/A)                    R                   dR               theory              fresnel
  0.0079921268598835 9.45110311251489e-05      1.0391153255527   0.0870001668327106    0.995618375950666    0.995618375950666
  0.0081120087627818     9.5928696592e-05    0.956598243448905   0.0771478183216141    0.995618375950666    0.995618375950666
  0.0082336888942235 9.73676270408936e-05    0.887687666797014     0.07022029181707    0.995618375950666    0.995618375950666
  0.0083571942276368 9.88281414465106e-05     1.03219560690103   0.0721334109041791    0.995618375950666    0.995618375950666
  0.0084825521410514 0.000100310563568213    0.993173577859653   0.0680838993347465    0.995618375950666    0.995618375950666
  0.0086097904231672 0.000101815222021745    0.955850962525234    0.062913087702573    0.995618375950666    0.995618375950666
  0.0087389372795147 0.000103342450352043     1.01695936803203   0.0616819172492598    0.995618375950665    0.995618375950666
  0.0088700213387074 0.000104892587107319     1.06304339622218   0.0601995340047706    0.995618375950666    0.995618375950666
   0.009003071658788 0.000106465975913957    0.991204948369346   0.0555957650135788    0.995618375950666    0.995618375950666
  0.0091381177336698 0.000108062965552638     1.01452087997749   0.0532578563191506    0.995618375950666    0.995618375950666
  0.0092751894996749 0.000109683910035957     1.12310696005345     0.05348992069179    0.995618375950666    0.995618375950666
    0.00941431734217 0.000111329168686468     1.12039803479881   0.0515231155133049    0.995618375950666    0.995618375950666
  0.0095555321023025 0.000112907490629064       1.103938045577   0.0561354563711899    0.995618375950666    0.995618375950666
  0.0096988650838371 0.000114601102988468     1.06916402627004   0.0929800689320113    0.995618375950666    0.995618375950666
  0.0098443480600946 0.000116320119533319     1.00532367855752   0.0832076383026153    0.995618375950666    0.995618375950666
   0.009992013280996 0.000118064921326298     1.01759443703201   0.0792245669091075    0.995618375950666    0.995618375950666
   0.010141893480211 0.000119835895146213    0.880256326515792   0.0709364280000212    0.995618375950666    0.995618375950666
  0.0102940218824141 0.000121633433573404     1.07363862702824   0.0781658337720366    0.995618375950666    0.995618375950666
  0.0104484322106503 0.000123457935076979     1.01515560053883   0.0703912245839545    0.995618375950665    0.995618375950666
  0.0106051586938101 0.000125309804103149     1.02529392590997    0.068946922435027    0.995618375950666    0.995618375950666
  0.0107642360742173 0.000127189451164681    0.946684002827321   0.0611096479486924    0.995618375950666    0.995618375950666
  0.0109256996153305  0.00012909729293217    0.872688361302729   0.0566709247687679    0.995618375950665    0.995618375950666
  0.0110895851095605  0.00013103375232617    0.958607143612556   0.0571741811484443    0.995618375950665    0.995618375950666
  0.0112559288862039 0.000132999258611021    0.944709166890991   0.0556237863065951    0.995618375950665    0.995618375950666
  0.0114247678194969 0.000134994247490213    0.996706845431127   0.0548338535294809    0.995618375950666    0.995618375950666
  0.0115961393367894 0.000137019161202553    0.827430264316961   0.0466867928905421    0.995618375950668    0.995618375950666
  0.0117700814268412  0.00013918729664583    0.848349272975026   0.0607308745074861    0.995618375950671    0.995618375950666
  0.0119466326482438 0.000141160565349915    0.855129924656534   0.0583966347919299     0.99561837595067    0.995618375950666
  0.0121258321379675 0.000143394232686936     1.21427587420701    0.130757904670448    0.995618375950668    0.995618375950666
   0.012307719620037 0.000145545146177234     1.01617406091349    0.112184199313061    0.995618375950667    0.995618375950666
  0.0124923354143376 0.000147728323369915     1.07356220867034    0.112079046027523    0.995618375950666    0.995618375950666
  0.0126797204455526 0.000149944248220468     1.07874506300878    0.109410822462576    0.995618375950666    0.995618375950666
  0.0128699162522359 0.000152193411943745     1.08547494848411     0.10792623696459    0.995618375950666    0.995618375950666
  0.0130629649960195 0.000154476313122894     1.03803707795128    0.100315408830428    0.995618375950666    0.995618375950666
  0.0132589094709597 0.000156793457819745     1.07021022072375    0.100765312513214    0.995618375950666    0.995618375950666
  0.0134577931130241 0.000159145359687064     1.04336927451756   0.0969153145689443    0.995618375950666    0.995618375950666
  0.0136596600097195  0.00016153254008234     1.01120518876774   0.0923795998438272    0.995585557931044    0.995090846056328
  0.0138645549098653 0.000163955528183574    0.985871225996434   0.0880472766130371    0.994615309268335    0.979693977935381
  0.0140725232335133  0.00016641486110634     1.03369643917012   0.0898234605431627    0.987451299448032    0.870561572919989
   0.014283611082016 0.000168911084022936    0.982308577216395   0.0840841842307935    0.969988135087063    0.637401414631458
  0.0144978652482462 0.000171444750283277    0.965080815326776   0.0817255560252255    0.949135222126146    0.440935548743217
  0.0147153332269699 0.000174016421537532     0.98229128588157   0.0807268822220255    0.928276810531263    0.333069482497145
  0.0149360632253744 0.000176626667860596    0.941459761213013   0.0771674948558475    0.905303330712702    0.268845430735939
  0.0151601041737551 0.000179276067878511     0.82542611335888    0.067832776460396     0.87807573794716    0.224245794105278
  0.0153875057363614 0.000181965208896681    0.830993407032905     0.04624065028482    0.844762848543294    0.190760319059377
  0.0156183183224068 0.000184694687030128    0.784186294399404    0.043049888805654    0.803470999927356    0.164517352606863
  0.0158525930972429 0.000187465107335574    0.731004963270969   0.0400180438905756    0.752215078150473    0.143358719532185
  0.0160903819937015 0.000190277083945617    0.657063739141513   0.0489438755539281    0.689151769845853    0.125944070261713
  0.0163317377236071 0.000193131240204808    0.613375448289255   0.0460757230562818    0.613106062825508    0.111382281508189
  0.0165767137894612 0.000196028208807872    0.492135937222116   0.0386502944791475    0.524407902624584   0.0990514958619608
  0.0168253644963031     0.00019896863194    0.414118271428831   0.0326918928201802    0.425860898890883   0.0885015471083654
  0.0170777449637476 0.000201953161419106    0.329637994193392   0.0273594731676445    0.323332524521884   0.0793969912084172
  0.0173339111382038 0.000204982458840383    0.249735637362136    0.022127860409768    0.225250006426653   0.0714819268901619
  0.0175939198052769 0.000208057195722979    0.150580396479851   0.0154006699003435    0.140651999467259   0.0645572870541772
   0.017857828602356 0.000211178053658851    0.101965102781448    0.012205768150824    0.076447537667512   0.0584656411606373
  0.0181256960313914 0.000214345724463702   0.0338222907804729    0.006209352925535   0.0353575753498136   0.0530807136809216
  0.0183975814718623 0.000217560910330681   0.0257033230715635      0.0052939549475   0.0156764059639208   0.0482999684101551
  0.0186735451939402 0.000220824323985617   0.0201010530494741   0.0050286095317381   0.0127047972831022   0.0440392455488771
  0.0189536483718493 0.000224136688845404   0.0255539665174043   0.0049047515979265   0.0207457141624401   0.0402288086101979
   0.019237953097427 0.000227498739178085   0.0343252796791884   0.0056105341117817   0.0346379725112938   0.0368103812667075
  0.0195265223938884 0.000230911220265787   0.0651004673244813   0.0078774357373911   0.0504759464986815    0.033734892985326
  0.0198194202297968 0.000234374888569745   0.0701772550569766   0.0080434203746486   0.0656918554791568   0.0309607410019007
  0.0201167115332437 0.000237890511898298   0.0819697230850972   0.0086824254412056   0.0788221271806094   0.0284524343017505
  0.0204184622062424 0.000241458869576766   0.0975624893200773   0.0093108408521747   0.0891955328823596   0.0261795241808386
   0.020724739139336 0.000245080752620426    0.101648717434627    0.009486297697543    0.096657208643627   0.0241157525232862
   0.021035610226426 0.000248756963909745    0.091619411340039   0.0088341066276712    0.101360286300179   0.0222383673834269
  0.0213511443798224 0.000252488318368383    0.101048199370735   0.0091013101120211    0.103619846576077   0.0205275684853896
  0.0216714115455197 0.000256275643143915   0.0910209060719288   0.0083165824953306     0.10381396648827   0.0189660545808269
  0.0219964827187025 0.000260119777791064    0.100848208931894   0.0085801109333113    0.102318169334608   0.0175386513745443
  0.0223264299594831 0.000264021574457915    0.104382262823472   0.0088696835445527    0.099464097637137   0.0162320037004126
  0.0226613264088753 0.000267981898074808    0.099465491015952   0.0048303350600282   0.0955171419613639    0.015034319324109
  0.0230012463050085 0.000272001626545915   0.0959432041376636   0.0045273632919381   0.0906700203346883   0.0139351545223512
  0.0233462649995836 0.000276081650944128   0.0840263395209477   0.0040643848724047   0.0850499964587069   0.0129252336901877
  0.0236964589745773 0.000280222875708255   0.0857133711086119   0.0041355839774356   0.0787370827409382   0.0119962968354119
   0.024051905859196 0.000284426218843915   0.0691286576092886   0.0034607184593033   0.0717898135467366   0.0111409700589729
  0.0244126844470839 0.000288770717068383    0.062663022015181   0.0029851009151217   0.0642744215453949   0.0103526679593279
  0.0247788747137902 0.000293102277824426   0.0564138918158086   0.0027162856324474   0.0562932765259126  0.00962544642981441
   0.025150557834497 0.000297498811991787   0.0491799026477654   0.0023913460631654   0.0480071169137409  0.00895400197788086
  0.0255278162020145  0.00030196129417166   0.0399287947274814   0.0020175482485325   0.0396482141045577  0.00833354654608936
  0.0259107334450447 0.000306490713584255   0.0332070615689114   0.0017291653056178   0.0315199738499951  0.00775976086281744
  0.0262993944467204    0.000311088074288   0.0233744411671619   0.0013050807686893   0.0239812518317584  0.00722874168993584
  0.0266938853634212  0.00031575439540234   0.0169094366443969   0.0010294009793983   0.0174152551687561  0.00673695586814948
  0.0270942936438725 0.000320490711333362   0.0125848985856198   0.0008259291194149   0.0121858678641857  0.00628120016764175
  0.0275007080485306 0.000325298072003362   0.0088034549406285   0.0006483649505286  0.00858750414510748  0.00585856611367573
  0.0279132186692585 0.000330177543083404   0.0065475302413786   0.0005294001986047  0.00679730044316311  0.00546640908959812
  0.0283319169492974  0.00033513020622966    0.006097859844307   0.0005207907879781  0.00683942936939075  0.00510232112902885
  0.0287568957035369 0.000340157159323106   0.0083144973281175   0.0006142347593222  0.00856971749836945  0.00476410689942773
  0.0291882491390899 0.000345259516712936   0.0119753296015935   0.0007851823976557    0.011684660429672  0.00444976245428532
  0.0296260728761763  0.00035043840946366   0.0168657052032826   0.0009667214691435   0.0157535415094713  0.00415745639374515
  0.0300704639693189 0.000355694985605617   0.0199529488370998   0.0010722124505654   0.0202674932415232  0.00388551312579814
  0.0305215209288587 0.000361030410389702   0.0222341256755341   0.0011467254327106   0.0246965598680536   0.0036323979641228
  0.0309793437427915 0.000366445866545532   0.0287689098392914   0.0014166191055787   0.0285457064894462   0.0033967038356595
  0.0314440338989334 0.000371942554543702   0.0307701333587812   0.0014542340251194   0.0314027278178047  0.00317713940228254
  0.0319156944074174 0.000377521692861872   0.0315853468112339   0.0014821424708464   0.0329739218068357  0.00297251842745555
  0.0323944298235287 0.000383184518254808   0.0308417062901952   0.0014743817435564   0.0331060058531574  0.00278175024130247
  0.0328803462708816 0.000388932286028638   0.0314581072097687   0.0015224836561169   0.0317943715962688  0.00260383117675917
  0.0333735514649448 0.000394766270319064   0.0298943625335891   0.0014383117061084   0.0291783502554154  0.00243783686591431
   0.033874154736919  0.00040068776437383   0.0246053515001674   0.0012364431973347   0.0255241359999017  0.00228291529975063
  0.0343822670579728 0.000406698080839447   0.0211837068543489    0.001094196843301   0.0211960352678605  0.00213828056661972
  0.0348980010638424 0.000412798552052043   0.0179011586907177   0.0009804466558645   0.0166173261484588  0.00200320719523091
     0.0354214710798 0.000418990530332808    0.011875581748827   0.0007316930368324   0.0122234339550143  0.00187702503696076
   0.035952793145997 0.000425275388287787   0.0077941041180605   0.0005463178052609  0.00841208230987663  0.00175911463010392
  0.0364920850431869 0.000431654519112128   0.0053222551748483    0.000437800433908  0.00549683877292358  0.00164890299546882
  0.0370394663188347 0.000438129336898808   0.0035646982597442   0.0003477889305293  0.00367113388375785  0.00154585981861917
  0.0375950583136173 0.000444701276952298   0.0026444379897449   0.0002971527951104  0.00298874686154776  0.00144949397920366
  0.0381589841883215 0.000451371796106553   0.0034918495887506   0.0003340489766637  0.00336393692313489  0.00135935039230435
  0.0387313689511463  0.00045814237304817    0.004784050684409   0.0003982024401456  0.00459062945204001  0.00127500713066251
  0.0393123394854135 0.000465014508643872   0.0070720663715115    0.000499235913969   0.0063765455073765  0.00119607280008446
  0.0399020245776947 0.000471989726273532   0.0095193538032441   0.0006106298296069  0.00838595213615056  0.00112218414335311
  0.0405005549463601 0.000479069572167659   0.0099921285022532   0.0006092997810735   0.0102842509568422  0.00105300385063234
  0.0411080632705555  0.00048625561575017   0.0118561877990955   0.0006861216809456   0.0117786280640324 0.000988218556696186
  0.0417246842196139 0.000493549449986426    0.013498094108884   0.0007607521400977   0.0126507144807513 0.000927537007384638
  0.0423505544829081 0.000500952691736213   0.0131909287324454    0.000729807736874    0.012778875595555 0.000870688379518852
  0.0429858128001517 0.000508466982112255   0.0121053817881585   0.0006874861381053   0.0121488913685898 0.000817420740129357
   0.043630599992154 0.000516093986843957   0.0124692216256902   0.0007224350030438   0.0108523773722081 0.000767499632289233
  0.0442850589920363 0.000523835396646596   0.0090526734047192   0.0005835804703305  0.00907267127417992 0.000720706776121384
  0.0449493348769168 0.000531692927596298   0.0068347061032987   0.0003086895269502   0.0070585811442941 0.000676838874685557
  0.0456235749000706  0.00054044145225166   0.0049124181864414    0.000242641438136  0.00508808071857326  0.00063570951745353
  0.0463079285235716 0.000547763346332894   0.0033349383228461   0.0001818658434499  0.00342370902872773 0.000597133159061015
  0.0470025474514252 0.000555979796527915   0.0020861022712743   0.0001408556724578  0.00227242313146824 0.000560954207562028
  0.0477075856631966  0.00056431949347583   0.0016602443943304   0.0001383224535257  0.00174708746140503 0.000527016145672129
  0.0484231994481445 0.000573604858666723   0.0018163933781068   0.0001323644096269  0.00184864126079404 0.000495178057198512
  0.0491495474398667 0.000581376050166128   0.0026830649336362   0.0001738409501132  0.00246454947069635 0.000465299350060208
  0.0498867906514647 0.000590096690918596    0.003464728749753   0.0001996608304658  0.00339641326260034 0.000437262168248497
  0.0506350925112366 0.000599806196502723   0.0043707424804438   0.0002312431328525  0.00439573531241381 0.000410949579996475
  0.0513946188989052 0.000608803289450255   0.0050238924009496   0.0002588760141503  0.00521678715197793 0.000386248826277673
  0.0521655381823887 0.000617935338792043   0.0057033721862603   0.0002875399557812  0.00566475752991815   0.0003630602411583
  0.0529480212551246 0.000627204368873915   0.0059591061454203   0.0002967173954238  0.00563389202237729 0.000341288785627074
  0.0537422415739514 0.000636612434407021   0.0048792676605092   0.0002438560103527  0.00512691971074108 0.000320845616712763
  0.0545483751975607 0.000646161620923106   0.0045462168359127   0.0002283349309464  0.00425144057891588 0.000301647663201881
  0.0553666008255241 0.000655854045236979   0.0033347107653604   0.0001751297995696  0.00319340200494536 0.000283617232281026
   0.056197099837907 0.000665691855915532   0.0020702585773614   0.0001198301633405  0.00217256383912205  0.00026668164467593
  0.0570400563354756 0.000675677233754255   0.0014069005621226    8.87211335626e-05  0.00138948882122741 0.000250772896066386
  0.0578956571805077 0.000685812392260553   0.0009956672577316    6.73757892056e-05 0.000976792940152432 0.000235827342743881
  0.0587640920382153 0.000696099578144468   0.0009619037868019    6.68781839619e-05 0.000967589171658113 0.000221785409649311
  0.0596455534187885 0.000706541071816638   0.0011775831026813    7.55453997885e-05  0.00129029991148037 0.000208591319083009
  0.0605402367200703 0.000717139187893915   0.0017968685842212   0.0001029783744631  0.00179186176271696 0.000196192838520315
  0.0614483402708714 0.000727896275712298   0.0023367385713142   0.0001261579156338  0.00228300447465274 0.000184541046094176
  0.0623700653749344    0.000738814719848   0.0025273959227434   0.0001330197404497  0.00259264571025508 0.000173590112423141
  0.0633056163555585 0.000749896940645702    0.002608721382782   0.0001367867869133  0.00261570553766089 0.000163297097569752
  0.0642552006008918 0.000761145394755404   0.0023976525474826   0.0001292310744388  0.00234050243786696 0.000153621762011585
  0.0652190286099052 0.000772562575676723   0.0019409125766673   0.0001119502198171  0.00184766970065587 0.000144526390595998
  0.0661973140390538 0.000784151014311872   0.0011905731175744    7.65157945935e-05  0.00128076332494062 0.000135975628530931
  0.0671902737496396 0.000795913279526553   0.0008287864751772    6.00761199117e-05 0.000797473891931865 0.000127936328538268
  0.0681981278558842 0.000807851978719447   0.0005693674088454    4.82512268875e-05 0.000517144431856533 0.000120377408364333
  0.0692210997737224 0.000819969758400255   0.0004276170361083    4.18955236307e-05 0.000482458536864871  0.00011326971790431
  0.0702594162703283 0.000832269304776255   0.0006466078629901    4.93116099595e-05 0.000648966369588512 0.000106585915254483
  0.0713133075143832 0.000844753344347872   0.0009483531747211    6.22498682546e-05 0.000906252778391527 0.000100300351058519
  0.0723830071270989 0.000857424644513106   0.0010816707831533     6.8535499021e-05  0.00112256203064662 9.43889605620751e-05
  0.0734687522340054 0.000870286014180809   0.0012182703913021    7.46801157447e-05  0.00119553759802363 8.88291628341404e-05
  0.0745707835175154 0.000883340304393532   0.0011304350745557    6.83659050524e-05  0.00108932937344545 8.35997666540705e-05
  0.0756893452702782 0.000896590408959404   0.0008681146969365    5.81897523246e-05 0.000843744186576904  7.8680882600562e-05
  0.0768246854493324  0.00091003926509383   0.0005452500880769    4.41379426301e-05 0.000552365977054061 7.40538409131392e-05
  0.0779770557310723 0.000923689854070213   0.0003813740450277     3.3803785088e-05 0.000319407649039128  6.9701114728289e-05
  0.0791467115670384 0.000937545201881277   0.0002734902041643    2.80796391734e-05  0.00021427296765795 6.56062483215032e-05
   0.080333912240544 0.000951608379909489   0.0002788058008762    2.93028588187e-05 0.000244005592919829 6.17537900132959e-05
  0.0815389209241521 0.000965882505608128   0.0003451781958298    3.54586233955e-05  0.00035565268504125 5.81292294219958e-05
