#      z (A) rho (1e-6/A2) irho (1e-6/A2)
-167.24979760   6.22365722   0.00000000
-167.14979760   6.22364338   0.00000000
-167.04979760   6.22362947   0.00000000
-166.94979760   6.22361549   0.00000000
-166.84979760   6.22360143   0.00000000
-166.74979760   6.22358730   0.00000000
-166.64979760   6.22357309   0.00000000
-166.54979760   6.22355880   0.00000000
-166.44979760   6.22354444   0.00000000
-166.34979760   6.22353000   0.00000000
-166.24979760   6.22351548   0.00000000
-166.14979760   6.22350088   0.00000000
-166.04979760   6.22348621   0.00000000
-165.94979760   6.22347145   0.00000000
-165.84979760   6.22345662   0.00000000
-165.74979760   6.22344171   0.00000000
-165.64979760   6.22342672   0.00000000
-165.54979760   6.22341165   0.00000000
-165.44979760   6.22339650   0.00000000
-165.34979760   6.22338127   0.00000000
-165.24979760   6.22336595   0.00000000
-165.14979760   6.22335056   0.00000000
-165.04979760   6.22333508   0.00000000
-164.94979760   6.22331952   0.00000000
-164.84979760   6.22330388   0.00000000
-164.74979760   6.22328815   0.00000000
-164.64979760   6.22327234   0.00000000
-164.54979760   6.22325645   0.00000000
-164.44979760   6.22324047   0.00000000
-164.34979760   6.22322441   0.00000000
-164.24979760   6.22320826   0.00000000
-164.14979760   6.22319203   0.00000000
-164.04979760   6.22317571   0.00000000
-163.94979760   6.22315930   0.00000000
-163.84979760   6.22314281   0.00000000
-163.74979760   6.22312623   0.00000000
-163.64979760   6.22310957   0.00000000
-163.54979760   6.22309281   0.00000000
-163.44979760   6.22307597   0.00000000
-163.34979760   6.22305904   0.00000000
-163.24979760   6.22304201   0.00000000
-163.14979760   6.22302490   0.00000000
-163.04979760   6.22300770   0.00000000
-162.94979760   6.22299041   0.00000000
-162.84979760   6.22297303   0.00000000
-162.74979760   6.22295555   0.00000000
-162.64979760   6.22293799   0.00000000
-162.54979760   6.22292033   0.00000000
-162.44979760   6.22290258   0.00000000
-162.34979760   6.22288474   0.00000000
-162.24979760   6.22286680   0.00000000
-162.14979760   6.22284877   0.00000000
-162.04979760   6.22283065   0.00000000
-161.94979760   6.22281243   0.00000000
-161.84979760   6.22279411   0.00000000
-161.74979760   6.22277570   0.00000000
-161.64979760   6.22275719   0.00000000
-161.54979760   6.22273859   0.00000000
-161.44979760   6.22271989   0.00000000
-161.34979760   6.22270109   0.00000000
-161.24979760   6.22268220   0.00000000
-161.14979760   6.22266320   0.00000000
-161.04979760   6.22264411   0.00000000
-160.94979760   6.22262492   0.00000000
-160.84979760   6.22260563   0.00000000
-160.74979760   6.22258624   0.00000000
-160.64979760   6.22256675   0.00000000
-160.54979760   6.22254715   0.00000000
-160.44979760   6.22252746   0.00000000
-160.34979760   6.22250766   0.00000000
-160.24979760   6.22248777   0.00000000
-160.14979760   6.22246776   0.00000000
-160.04979760   6.22244766   0.00000000
-159.94979760   6.22242745   0.00000000
-159.84979760   6.22240714   0.00000000
-159.74979760   6.22238672   0.00000000
-159.64979760   6.22236620   0.00000000
-159.54979760   6.22234557   0.00000000
-159.44979760   6.22232484   0.00000000
-159.34979760   6.22230399   0.00000000
-159.24979760   6.22228305   0.00000000
-159.14979760   6.22226199   0.00000000
-159.04979760   6.22224083   0.00000000
-158.94979760   6.22221955   0.00000000
-158.84979760   6.22219817   0.00000000
-158.74979760   6.22217668   0.00000000
-158.64979760   6.22215508   0.00000000
-158.54979760   6.22213337   0.00000000
-158.44979760   6.22211154   0.00000000
-158.34979760   6.22208961   0.00000000
-158.24979760   6.22206756   0.00000000
-158.14979760   6.22204540   0.00000000
-158.04979760   6.22202313   0.00000000
-157.94979760   6.22200075   0.00000000
-157.84979760   6.22197825   0.00000000
-157.74979760   6.22195563   0.00000000
-157.64979760   6.22193290   0.00000000
-157.54979760   6.22191006   0.00000000
-157.44979760   6.22188710   0.00000000
-157.34979760   6.22186402   0.00000000
-157.24979760   6.22184083   0.00000000
-157.14979760   6.22181751   0.00000000
-157.04979760   6.22179408   0.00000000
-156.94979760   6.22177053   0.00000000
-156.84979760   6.22174687   0.00000000
-156.74979760   6.22172308   0.00000000
-156.64979760   6.22169917   0.00000000
-156.54979760   6.22167514   0.00000000
-156.44979760   6.22165099   0.00000000
-156.34979760   6.22162672   0.00000000
-156.24979760   6.22160232   0.00000000
-156.14979760   6.22157780   0.00000000
-156.04979760   6.22155316   0.00000000
-155.94979760   6.22152840   0.00000000
-155.84979760   6.22150351   0.00000000
-155.74979760   6.22147849   0.00000000
-155.64979760   6.22145335   0.00000000
-155.54979760   6.22142809   0.00000000
-155.44979760   6.22140269   0.00000000
-155.34979760   6.22137717   0.00000000
-155.24979760   6.22135152   0.00000000
-155.14979760   6.22132574   0.00000000
-155.04979760   6.22129984   0.00000000
-154.94979760   6.22127380   0.00000000
-154.84979760   6.22124764   0.00000000
-154.74979760   6.22122134   0.00000000
-154.64979760   6.22119491   0.00000000
-154.54979760   6.22116835   0.00000000
-154.44979760   6.22114166   0.00000000
-154.34979760   6.22111483   0.00000000
-154.24979760   6.22108788   0.00000000
-154.14979760   6.22106078   0.00000000
-154.04979760   6.22103356   0.00000000
-153.94979760   6.22100619   0.00000000
-153.84979760   6.22097869   0.00000000
-153.74979760   6.22095106   0.00000000
-153.64979760   6.22092329   0.00000000
-153.54979760   6.22089538   0.00000000
-153.44979760   6.22086733   0.00000000
-153.34979760   6.22083914   0.00000000
-153.24979760   6.22081082   0.00000000
-153.14979760   6.22078235   0.00000000
-153.04979760   6.22075374   0.00000000
-152.94979760   6.22072499   0.00000000
-152.84979760   6.22069610   0.00000000
-152.74979760   6.22066707   0.00000000
-152.64979760   6.22063790   0.00000000
-152.54979760   6.22060858   0.00000000
-152.44979760   6.22057911   0.00000000
-152.34979760   6.22054951   0.00000000
-152.24979760   6.22051975   0.00000000
-152.14979760   6.22048985   0.00000000
-152.04979760   6.22045981   0.00000000
-151.94979760   6.22042961   0.00000000
-151.84979760   6.22039927   0.00000000
-151.74979760   6.22036878   0.00000000
-151.64979760   6.22033814   0.00000000
-151.54979760   6.22030735   0.00000000
-151.44979760   6.22027641   0.00000000
-151.34979760   6.22024532   0.00000000
-151.24979760   6.22021408   0.00000000
-151.14979760   6.22018268   0.00000000
-151.04979760   6.22015113   0.00000000
-150.94979760   6.22011943   0.00000000
-150.84979760   6.22008757   0.00000000
-150.74979760   6.22005556   0.00000000
-150.64979760   6.22002340   0.00000000
-150.54979760   6.21999107   0.00000000
-150.44979760   6.21995859   0.00000000
-150.34979760   6.21992595   0.00000000
-150.24979760   6.21989316   0.00000000
-150.14979760   6.21986020   0.00000000
-150.04979760   6.21982709   0.00000000
-149.94979760   6.21979381   0.00000000
-149.84979760   6.21976038   0.00000000
-149.74979760   6.21972678   0.00000000
-149.64979760   6.21969302   0.00000000
-149.54979760   6.21965910   0.00000000
-149.44979760   6.21962501   0.00000000
-149.34979760   6.21959076   0.00000000
-149.24979760   6.21955634   0.00000000
-149.14979760   6.21952176   0.00000000
-149.04979760   6.21948702   0.00000000
-148.94979760   6.21945210   0.00000000
-148.84979760   6.21941702   0.00000000
-148.74979760   6.21938177   0.00000000
-148.64979760   6.21934635   0.00000000
-148.54979760   6.21931076   0.00000000
-148.44979760   6.21927500   0.00000000
-148.34979760   6.21923907   0.00000000
-148.24979760   6.21920296   0.00000000
-148.14979760   6.21916669   0.00000000
-148.04979760   6.21913024   0.00000000
-147.94979760   6.21909362   0.00000000
-147.84979760   6.21905682   0.00000000
-147.74979760   6.21901984   0.00000000
-147.64979760   6.21898269   0.00000000
-147.54979760   6.21894537   0.00000000
-147.44979760   6.21890786   0.00000000
-147.34979760   6.21887018   0.00000000
-147.24979760   6.21883232   0.00000000
-147.14979760   6.21879428   0.00000000
-147.04979760   6.21875606   0.00000000
-146.94979760   6.21871765   0.00000000
-146.84979760   6.21867907   0.00000000
-146.74979760   6.21864030   0.00000000
-146.64979760   6.21860135   0.00000000
-146.54979760   6.21856221   0.00000000
-146.44979760   6.21852289   0.00000000
-146.34979760   6.21848338   0.00000000
-146.24979760   6.21844369   0.00000000
-146.14979760   6.21840381   0.00000000
-146.04979760   6.21836374   0.00000000
-145.94979760   6.21832349   0.00000000
-145.84979760   6.21828304   0.00000000
-145.74979760   6.21824240   0.00000000
-145.64979760   6.21820158   0.00000000
-145.54979760   6.21816056   0.00000000
-145.44979760   6.21811935   0.00000000
-145.34979760   6.21807794   0.00000000
-145.24979760   6.21803634   0.00000000
-145.14979760   6.21799455   0.00000000
-145.04979760   6.21795256   0.00000000
-144.94979760   6.21791037   0.00000000
-144.84979760   6.21786799   0.00000000
-144.74979760   6.21782541   0.00000000
-144.64979760   6.21778263   0.00000000
-144.54979760   6.21773965   0.00000000
-144.44979760   6.21769647   0.00000000
-144.34979760   6.21765309   0.00000000
-144.24979760   6.21760950   0.00000000
-144.14979760   6.21756572   0.00000000
-144.04979760   6.21752173   0.00000000
-143.94979760   6.21747753   0.00000000
-143.84979760   6.21743313   0.00000000
-143.74979760   6.21738853   0.00000000
-143.64979760   6.21734372   0.00000000
-143.54979760   6.21729870   0.00000000
-143.44979760   6.21725347   0.00000000
-143.34979760   6.21720803   0.00000000
-143.24979760   6.21716239   0.00000000
-143.14979760   6.21711653   0.00000000
-143.04979760   6.21707046   0.00000000
-142.94979760   6.21702418   0.00000000
-142.84979760   6.21697768   0.00000000
-142.74979760   6.21693097   0.00000000
-142.64979760   6.21688405   0.00000000
-142.54979760   6.21683691   0.00000000
-142.44979760   6.21678955   0.00000000
-142.34979760   6.21674198   0.00000000
-142.24979760   6.21669418   0.00000000
-142.14979760   6.21664617   0.00000000
-142.04979760   6.21659794   0.00000000
-141.94979760   6.21654948   0.00000000
-141.84979760   6.21650081   0.00000000
-141.74979760   6.21645191   0.00000000
-141.64979760   6.21640279   0.00000000
-141.54979760   6.21635344   0.00000000
-141.44979760   6.21630387   0.00000000
-141.34979760   6.21625408   0.00000000
-141.24979760   6.21620405   0.00000000
-141.14979760   6.21615380   0.00000000
-141.04979760   6.21610332   0.00000000
-140.94979760   6.21605261   0.00000000
-140.84979760   6.21600167   0.00000000
-140.74979760   6.21595050   0.00000000
-140.64979760   6.21589909   0.00000000
-140.54979760   6.21584745   0.00000000
-140.44979760   6.21579558   0.00000000
-140.34979760   6.21574348   0.00000000
-140.24979760   6.21569113   0.00000000
-140.14979760   6.21563855   0.00000000
-140.04979760   6.21558574   0.00000000
-139.94979760   6.21553268   0.00000000
-139.84979760   6.21547939   0.00000000
-139.74979760   6.21542585   0.00000000
-139.64979760   6.21537208   0.00000000
-139.54979760   6.21531806   0.00000000
-139.44979760   6.21526380   0.00000000
-139.34979760   6.21520929   0.00000000
-139.24979760   6.21515454   0.00000000
-139.14979760   6.21509954   0.00000000
-139.04979760   6.21504430   0.00000000
-138.94979760   6.21498881   0.00000000
-138.84979760   6.21493307   0.00000000
-138.74979760   6.21487708   0.00000000
-138.64979760   6.21482084   0.00000000
-138.54979760   6.21476435   0.00000000
-138.44979760   6.21470761   0.00000000
-138.34979760   6.21465061   0.00000000
-138.24979760   6.21459336   0.00000000
-138.14979760   6.21453585   0.00000000
-138.04979760   6.21447809   0.00000000
-137.94979760   6.21442007   0.00000000
-137.84979760   6.21436179   0.00000000
-137.74979760   6.21430326   0.00000000
-137.64979760   6.21424446   0.00000000
-137.54979760   6.21418540   0.00000000
-137.44979760   6.21412608   0.00000000
-137.34979760   6.21406650   0.00000000
-137.24979760   6.21400666   0.00000000
-137.14979760   6.21394654   0.00000000
-137.04979760   6.21388617   0.00000000
-136.94979760   6.21382552   0.00000000
-136.84979760   6.21376461   0.00000000
-136.74979760   6.21370343   0.00000000
-136.64979760   6.21364198   0.00000000
-136.54979760   6.21358026   0.00000000
-136.44979760   6.21351827   0.00000000
-136.34979760   6.21345600   0.00000000
-136.24979760   6.21339346   0.00000000
-136.14979760   6.21333065   0.00000000
-136.04979760   6.21326756   0.00000000
-135.94979760   6.21320419   0.00000000
-135.84979760   6.21314055   0.00000000
-135.74979760   6.21307662   0.00000000
-135.64979760   6.21301242   0.00000000
-135.54979760   6.21294794   0.00000000
-135.44979760   6.21288317   0.00000000
-135.34979760   6.21281812   0.00000000
-135.24979760   6.21275279   0.00000000
-135.14979760   6.21268717   0.00000000
-135.04979760   6.21262127   0.00000000
-134.94979760   6.21255508   0.00000000
-134.84979760   6.21248860   0.00000000
-134.74979760   6.21242183   0.00000000
-134.64979760   6.21235478   0.00000000
-134.54979760   6.21228743   0.00000000
-134.44979760   6.21221979   0.00000000
-134.34979760   6.21215185   0.00000000
-134.24979760   6.21208363   0.00000000
-134.14979760   6.21201510   0.00000000
-134.04979760   6.21194628   0.00000000
-133.94979760   6.21187716   0.00000000
-133.84979760   6.21180775   0.00000000
-133.74979760   6.21173803   0.00000000
-133.64979760   6.21166802   0.00000000
-133.54979760   6.21159770   0.00000000
-133.44979760   6.21152708   0.00000000
-133.34979760   6.21145615   0.00000000
-133.24979760   6.21138492   0.00000000
-133.14979760   6.21131339   0.00000000
-133.04979760   6.21124154   0.00000000
-132.94979760   6.21116939   0.00000000
-132.84979760   6.21109693   0.00000000
-132.74979760   6.21102416   0.00000000
-132.64979760   6.21095108   0.00000000
-132.54979760   6.21087769   0.00000000
-132.44979760   6.21080398   0.00000000
-132.34979760   6.21072995   0.00000000
-132.24979760   6.21065562   0.00000000
-132.14979760   6.21058096   0.00000000
-132.04979760   6.21050599   0.00000000
-131.94979760   6.21043069   0.00000000
-131.84979760   6.21035508   0.00000000
-131.74979760   6.21027914   0.00000000
-131.64979760   6.21020289   0.00000000
-131.54979760   6.21012630   0.00000000
-131.44979760   6.21004940   0.00000000
-131.34979760   6.20997217   0.00000000
-131.24979760   6.20989461   0.00000000
-131.14979760   6.20981672   0.00000000
-131.04979760   6.20973850   0.00000000
-130.94979760   6.20965995   0.00000000
-130.84979760   6.20958108   0.00000000
-130.74979760   6.20950186   0.00000000
-130.64979760   6.20942232   0.00000000
-130.54979760   6.20934244   0.00000000
-130.44979760   6.20926222   0.00000000
-130.34979760   6.20918167   0.00000000
-130.24979760   6.20910077   0.00000000
-130.14979760   6.20901954   0.00000000
-130.04979760   6.20893797   0.00000000
-129.94979760   6.20885605   0.00000000
-129.84979760   6.20877379   0.00000000
-129.74979760   6.20869119   0.00000000
-129.64979760   6.20860824   0.00000000
-129.54979760   6.20852495   0.00000000
-129.44979760   6.20844130   0.00000000
-129.34979760   6.20835731   0.00000000
-129.24979760   6.20827297   0.00000000
-129.14979760   6.20818827   0.00000000
-129.04979760   6.20810323   0.00000000
-128.94979760   6.20801783   0.00000000
-128.84979760   6.20793207   0.00000000
-128.74979760   6.20784596   0.00000000
-128.64979760   6.20775949   0.00000000
-128.54979760   6.20767266   0.00000000
-128.44979760   6.20758547   0.00000000
-128.34979760   6.20749792   0.00000000
-128.24979760   6.20741001   0.00000000
-128.14979760   6.20732174   0.00000000
-128.04979760   6.20723310   0.00000000
-127.94979760   6.20714409   0.00000000
-127.84979760   6.20705472   0.00000000
-127.74979760   6.20696498   0.00000000
-127.64979760   6.20687487   0.00000000
-127.54979760   6.20678439   0.00000000
-127.44979760   6.20669353   0.00000000
-127.34979760   6.20660230   0.00000000
-127.24979760   6.20651070   0.00000000
-127.14979760   6.20641873   0.00000000
-127.04979760   6.20632637   0.00000000
-126.94979760   6.20623364   0.00000000
-126.84979760   6.20614053   0.00000000
-126.74979760   6.20604703   0.00000000
-126.64979760   6.20595316   0.00000000
-126.54979760   6.20585890   0.00000000
-126.44979760   6.20576426   0.00000000
-126.34979760   6.20566923   0.00000000
-126.24979760   6.20557381   0.00000000
-126.14979760   6.20547801   0.00000000
-126.04979760   6.20538181   0.00000000
-125.94979760   6.20528523   0.00000000
-125.84979760   6.20518825   0.00000000
-125.74979760   6.20509088   0.00000000
-125.64979760   6.20499312   0.00000000
-125.54979760   6.20489496   0.00000000
-125.44979760   6.20479640   0.00000000
-125.34979760   6.20469744   0.00000000
-125.24979760   6.20459808   0.00000000
-125.14979760   6.20449832   0.00000000
-125.04979760   6.20439816   0.00000000
-124.94979760   6.20429760   0.00000000
-124.84979760   6.20419663   0.00000000
-124.74979760   6.20409525   0.00000000
-124.64979760   6.20399347   0.00000000
-124.54979760   6.20389128   0.00000000
-124.44979760   6.20378867   0.00000000
-124.34979760   6.20368566   0.00000000
-124.24979760   6.20358223   0.00000000
-124.14979760   6.20347839   0.00000000
-124.04979760   6.20337413   0.00000000
-123.94979760   6.20326946   0.00000000
-123.84979760   6.20316436   0.00000000
-123.74979760   6.20305885   0.00000000
-123.64979760   6.20295292   0.00000000
-123.54979760   6.20284656   0.00000000
-123.44979760   6.20273978   0.00000000
-123.34979760   6.20263258   0.00000000
-123.24979760   6.20252495   0.00000000
-123.14979760   6.20241689   0.00000000
-123.04979760   6.20230840   0.00000000
-122.94979760   6.20219948   0.00000000
-122.84979760   6.20209013   0.00000000
-122.74979760   6.20198035   0.00000000
-122.64979760   6.20187013   0.00000000
-122.54979760   6.20175948   0.00000000
-122.44979760   6.20164839   0.00000000
-122.34979760   6.20153686   0.00000000
-122.24979760   6.20142489   0.00000000
-122.14979760   6.20131248   0.00000000
-122.04979760   6.20119963   0.00000000
-121.94979760   6.20108634   0.00000000
-121.84979760   6.20097259   0.00000000
-121.74979760   6.20085841   0.00000000
-121.64979760   6.20074377   0.00000000
-121.54979760   6.20062868   0.00000000
-121.44979760   6.20051314   0.00000000
-121.34979760   6.20039716   0.00000000
-121.24979760   6.20028071   0.00000000
-121.14979760   6.20016381   0.00000000
-121.04979760   6.20004646   0.00000000
-120.94979760   6.19992865   0.00000000
-120.84979760   6.19981037   0.00000000
-120.74979760   6.19969164   0.00000000
-120.64979760   6.19957244   0.00000000
-120.54979760   6.19945279   0.00000000
-120.44979760   6.19933266   0.00000000
-120.34979760   6.19921207   0.00000000
-120.24979760   6.19909101   0.00000000
-120.14979760   6.19896949   0.00000000
-120.04979760   6.19884749   0.00000000
-119.94979760   6.19872502   0.00000000
-119.84979760   6.19860207   0.00000000
-119.74979760   6.19847865   0.00000000
-119.64979760   6.19835476   0.00000000
-119.54979760   6.19823039   0.00000000
-119.44979760   6.19810553   0.00000000
-119.34979760   6.19798020   0.00000000
-119.24979760   6.19785438   0.00000000
-119.14979760   6.19772809   0.00000000
-119.04979760   6.19760130   0.00000000
-118.94979760   6.19747403   0.00000000
-118.84979760   6.19734627   0.00000000
-118.74979760   6.19721802   0.00000000
-118.64979760   6.19708928   0.00000000
-118.54979760   6.19696005   0.00000000
-118.44979760   6.19683033   0.00000000
-118.34979760   6.19670011   0.00000000
-118.24979760   6.19656939   0.00000000
-118.14979760   6.19643817   0.00000000
-118.04979760   6.19630646   0.00000000
-117.94979760   6.19617424   0.00000000
-117.84979760   6.19604152   0.00000000
-117.74979760   6.19590830   0.00000000
-117.64979760   6.19577457   0.00000000
-117.54979760   6.19564033   0.00000000
