# intensity: 0.982726220775604
# background: 0
#           Q (1/A)             dQ (1/A)                    R                   dR               theory              fresnel
  0.0079921268598835 9.45110311251489e-05    0.918756126318339    0.081936434206331    0.982726220775605    0.982726220775604
  0.0081120087627818     9.5928696592e-05     1.13444184218421   0.0841715554215936    0.982726220775606    0.982726220775604
  0.0082336888942235 9.73676270408936e-05     1.02437746640313   0.0755706013818194    0.982726220775605    0.982726220775604
  0.0083571942276368 9.88281414465106e-05    0.944825796016571   0.0691289992494416    0.982726220775604    0.982726220775604
  0.0084825521410514 0.000100310563568213     1.14166153841183   0.0731277031825891    0.982726220775604    0.982726220775604
  0.0086097904231672 0.000101815222021745    0.996532424065141   0.0643500262867498    0.982726220775604    0.982726220775604
  0.0087389372795147 0.000103342450352043     1.03173789301163   0.0622362302610561    0.982726220775605    0.982726220775604
  0.0088700213387074 0.000104892587107319     1.01544133835785   0.0589373095750005    0.982726220775605    0.982726220775605
   0.009003071658788 0.000106465975913957     1.01966128895986   0.0564860557137792    0.982726220775605    0.982726220775605
  0.0091381177336698 0.000108062965552638     1.05449421091482    0.054391245434368    0.982726220775605    0.982726220775604
  0.0092751894996749 0.000109683910035957     1.02477587311089   0.0511823798616846    0.982726220775605    0.982726220775604
    0.00941431734217 0.000111329168686468     1.02444927169695   0.0493522336322111    0.982726220775605    0.982726220775604
  0.0095555321023025 0.000112999106216766    0.957473305015237   0.0496372338484392    0.982726220775605    0.982726220775605
  0.0096988650838371 0.000114694092810043     1.06421840773031   0.0909319071169455    0.982726220775605    0.982726220775604
  0.0098443480600946  0.00011641450420217     1.18020972733398   0.0897377202003019    0.982726220775605    0.982726220775604
   0.009992013280996 0.000118160721765234     0.82840554912952   0.0713014136538026    0.982726220775605    0.982726220775604
   0.010141893480211 0.000119933132591702     1.04909446156814   0.0781583760995627    0.982726220775604    0.982726220775605
  0.0102940218824141 0.000121732129580553     1.10336729959225   0.0768792750158177    0.982726220775604    0.982726220775604
  0.0104484322106503 0.000123558111524298       1.089281986526   0.0737521295898374    0.982726220775604    0.982726220775604
  0.0106051586938101 0.000125411483197149     1.01236697354125   0.0671953746794071    0.982726220775604    0.982726220775604
  0.0107642360742173 0.000127292655445106    0.913830757073215   0.0613906639522129    0.982726220775604    0.982726220775604
  0.0109256996153305 0.000129202045276766    0.992333419698007   0.0593044672837563    0.982726220775604    0.982726220775604
  0.0110895851095605 0.000131140075955915     1.04528967430689   0.0596479843447994    0.982726220775604    0.982726220775604
  0.0112559288862039 0.000133107177095277    0.854160411891955   0.0534780010239124    0.982726220775604    0.982726220775604
  0.0114247678194969 0.000135103784751702    0.804964661246797   0.0486190472805484    0.982726220775605    0.982726220775605
  0.0115961393367894 0.000137130341522979    0.794072017806337   0.0470586003792214    0.982726220775605    0.982726220775604
  0.0117700814268412  0.00013922495336183     1.00744304209521   0.0688028555363381    0.982726220775607    0.982726220775604
  0.0119466326482438 0.000141275106095489     1.03468647012712   0.0691937781969979    0.982726220775608    0.982726220775604
  0.0121258321379675 0.000143433027577191      1.2780198882728     0.13542667151162    0.982726220775605    0.982726220775604
   0.012307719620037 0.000145584522990851     1.07501202913457    0.116525349770133    0.982726220775604    0.982726220775604
  0.0124923354143376 0.000147768290835702     1.15931335930355     0.11923171149147    0.982726220775605    0.982726220775604
  0.0126797204455526 0.000149984815198255     1.00737811717021    0.103080745259342    0.982726220775605    0.982726220775604
  0.0128699162522359 0.000152234587426213     1.09135168439026    0.108168576675657    0.982726220775605    0.982726220775604
  0.0130629649960195 0.000154518106237617     1.01269766150263   0.0992452714463381    0.982726220775605    0.982726220775605
  0.0132589094709597 0.000156835877831191     1.11514065022266    0.105168966844896    0.982726220775605    0.982726220775605
  0.0134577931130241 0.000159188415998638     1.01456339684558    0.094798083860546    0.982726220775606    0.982726220775604
  0.0136596600097195 0.000161576242238638    0.915780647397331   0.0852407763749206    0.982693096265081    0.982204300662878
  0.0138645549098653 0.000163999885872213     1.00327352195745   0.0895827572886824    0.981715169906315    0.966993058092535
  0.0140725232335133 0.000166459884160298    0.937082873771982   0.0829431539543719    0.974499894018445    0.859263241874467
   0.014283611082016 0.000168956782422681    0.910564602528732   0.0797058022489844    0.956912918873655    0.629157366276105
  0.0144978652482462 0.000171491134159021    0.944973401526988   0.0806297969853107     0.93589209234856    0.435242574313583
  0.0147153332269699 0.000174063501171404    0.934111672541882   0.0773477153392164    0.914810029039106    0.328763774052941
  0.0149360632253744 0.000176674453688979    0.889384449213862   0.0729376723193495    0.891501309694954    0.265367500420421
  0.0151601041737551  0.00017932457049434    0.843449741728648   0.0685619854545891    0.863767061183114    0.221344011522093
  0.0153875057363614 0.000182014439051745    0.870913358727961   0.0478515365507626    0.829714934195762     0.18829148189959
  0.0156183183224068 0.000184744655637532    0.752497997061339   0.0415961702512358     0.78739454648479    0.162387958521086
  0.0158525930972429 0.000187515825472085    0.697250809491237    0.038017681360263    0.734791658331662    0.141503070272486
  0.0160903819937015 0.000190431604281277    0.614874764049817    0.046929816939249     0.67010361244116    0.124314821370989
  0.0163317377236071 0.000193288078345489    0.522550521893825   0.0411113350860544    0.592350499143932    0.109941255906967
  0.0165767137894612 0.000196187399520681    0.522433641480015    0.039673076835139     0.50225239120475   0.0977698952211466
  0.0168253644963031 0.000199130210513489    0.352275447366424   0.0294660782149361    0.403207525943535   0.0873563726554251
  0.0170777449637476 0.000202117163671191    0.310820992095883   0.0269268742728321    0.301718815125095   0.0783695693697388
  0.0173339111382038 0.000205148921126255     0.23713714249521   0.0219717067713793    0.206572465469927   0.0705568857487014
  0.0175939198052769 0.000208226154943149    0.127216679232221   0.0138587970306508    0.126588225428451   0.0637218243222236
   0.017857828602356 0.000211349547267319   0.0904404028039302   0.0110145882650254   0.0678572674514083   0.0577089875045873
  0.0181256960313914  0.00021451979047634   0.0480864037829207    0.007553514425393   0.0320231200574354   0.0523937309145369
  0.0183975814718623 0.000217737587333447   0.0183310581996489   0.0051870097206926   0.0165069857495946   0.0476748431842585
  0.0186735451939402 0.000221003651143447   0.0174208053373125   0.0040862269632048   0.0162111948017788   0.0434692521477845
  0.0189536483718493 0.000224318705910638   0.0280819997953817   0.0051479256604763   0.0254915429140638   0.0397081227151353
   0.019237953097427 0.000227683486499277   0.0327655889912472   0.0062388866152682   0.0395016786287694   0.0363339319400383
  0.0195265223938884 0.000231098738796766   0.0513011254715077   0.0069147691762168   0.0547224071514538   0.0332982437440855
  0.0198194202297968 0.000234565219878723   0.0606557546144161   0.0076407639418206   0.0689294847272191    0.030559993325206
  0.0201167115332437 0.000238083698176894   0.0768618983759981    0.008355847112056   0.0809181798773876   0.0280841486460944
  0.0204184622062424 0.000241654953649532    0.079516667307469   0.0083816558684042   0.0901912041433155   0.0258406548064507
   0.020724739139336 0.000245279777954298   0.0914776637048642   0.0087627313052246   0.0966979367605378   0.0238035933221936
   0.021035610226426 0.000248958974623617   0.0944793866111694   0.0087033374631119    0.100642934611232   0.0219505065497582
  0.0213511443798224 0.000252693359242979    0.108730581789824   0.0093674858474556    0.102353798932542   0.0202618503506286
  0.0216714115455197 0.000256483759631617    0.114514138132426   0.0099238255802412    0.102192987590745   0.0187205472987006
  0.0219964827187025 0.000260331016026085     0.10744788781606   0.0090555200295032    0.100501123082328   0.0173116194149591
  0.0223264299594831 0.000264235981266468   0.0943805200857108   0.0081070207441661   0.0975637831605333   0.0160218843224623
  0.0226613264088753 0.000268199520985489   0.0911981215273593   0.0044857591430013   0.0935970352721461   0.0148397023611481
  0.0230012463050085 0.000272222513800255   0.0862336293939333   0.0042008748775814   0.0887485527286421   0.0137547649393143
  0.0233462649995836 0.000276305851507277   0.0797738412405935   0.0039083488483871   0.0831113828171308   0.0127579164734051
  0.0236964589745773 0.000280450439279872   0.0752690372760494   0.0037237950373454    0.076746954639329   0.0118410038544912
   0.024051905859196 0.000284657195869064   0.0615884611838553   0.0031422391641922   0.0697132915557715     0.01099674860363
  0.0244126844470839 0.000289005285672638   0.0597447183168809   0.0028634250541709   0.0620939308593079   0.0102186505741201
  0.0247788747137902 0.000293340364957745    0.055475348877334   0.0026703729254125   0.0540233763213558  0.00950084250685524
   0.025150557834497 0.000297740470432128   0.0450492958677049   0.0022205523720549    0.045703850237161  0.00883808958202574
  0.0255278162020145 0.000302206577488596   0.0384022408533274   0.0019421239864615   0.0374109817482564  0.00822566570675057
  0.0259107334450447 0.000306739676150936    0.030618192384389   0.0016326245546806    0.029484682951973  0.00765930750828599
  0.0262993944467204 0.000311340771293191   0.0217201383974686   0.0012374789547184   0.0223046789620757  0.00713516226411548
  0.0266938853634212 0.000316010882862596   0.0170722088230703   0.0010248394964993   0.0162521545614402  0.00664974254179122
  0.0270942936438725 0.000320751046105532   0.0116305818609629   0.0007776015927859    0.011662170823209  0.00619988656899714
  0.0275007080485306 0.000325562311797106   0.0075438210876966   0.0005897141734874  0.00877450452752537  0.00578272351422308
  0.0279132186692585 0.000330445746474085   0.0082803055795712   0.0006271290065768   0.0076923451220211  0.00539564298951536
  0.0283319169492974 0.000335402432671191   0.0086615281021678   0.0006406002698811  0.00835781527581638  0.00503626819469293
  0.0287568957035369 0.000340433469161234   0.0117522497260451   0.0007599132450675   0.0105502195105933  0.00470243221165824
  0.0291882491390899 0.000345539971198681    0.013580094492428   0.0008326983489921   0.0139080020523005  0.00439215703151683
  0.0296260728761763 0.000350723070766638   0.0184033932226505   0.0010242895651281   0.0179702151396386  0.00410363495897155
  0.0300704639693189 0.000355983916828128   0.0226590595951927   0.0011747915502057   0.0222295961955494  0.00383521209011371
  0.0305215209288587 0.000361323675580553   0.0247285095617273   0.0012335321188288   0.0261881487729909  0.00358537360309864
  0.0309793437427915 0.000366743530714255   0.0306096561164253   0.0014709134168545   0.0294073260182684  0.00335273063772871
  0.0314440338989334 0.000372244683674979   0.0310252767000272    0.001461350266832   0.0315475503814089  0.00313600857083844
  0.0319156944074174 0.000377828353930128   0.0310448582453706   0.0014612938247895   0.0323946296731466  0.00293403652055461
  0.0323944298235287 0.000383495779239064   0.0318913155244863   0.0015003060478961   0.0318727312988476  0.00274573793475975
  0.0328803462708816  0.00038924821592766   0.0320841301853201    0.001544077937292   0.0300446362041369  0.00257012213807126
  0.0333735514649448 0.000395086939166553   0.0266241862915646   0.0013155368144204   0.0271002381761184  0.00240627672787942
   0.033874154736919 0.000401013243254043   0.0228246493053861   0.0011604554114582   0.0233342109221424  0.00225336072390765
  0.0343822670579728 0.000407028441902851   0.0189847867495225   0.0010165794110666   0.0191139841065417  0.00211059838772339
  0.0348980010638424 0.000413133868531404   0.0152183502760531   0.0008646982646547   0.0148399844286661  0.00197727363894059
     0.0354214710798 0.000419330876559404   0.0105744126861073   0.0006669336409519    0.010901476226477  0.00185272500376375
   0.035952793145997 0.000425620839707787   0.0079794578613321   0.0005495903509427  0.00763285188790049  0.00173634103923658
  0.0364920850431869 0.000432005152303404   0.0047445360114259   0.0004127264391768   0.0052761958718132  0.00162755618325354
  0.0370394663188347 0.000438485229587957    0.003236985165858   0.0003338939259003  0.00395574028777334  0.00152584698621367
  0.0375950583136173 0.000445062508031745   0.0037030753380905   0.0003561270552229  0.00366818965430962   0.0014307286852706
  0.0381589841883215 0.000451738445652255   0.0043047700355555   0.0003846642158142  0.00429013825623773  0.00134175208656342
  0.0387313689511463 0.000458514522337021   0.0066797811719028   0.0004790209445587  0.00560073566380262  0.00125850072469003
  0.0393123394854135 0.000465392240172085   0.0084490056550601   0.0005607698707586  0.00731529502594174  0.00118058827208364
  0.0399020245776947 0.000472373123774638   0.0098819784363971   0.0006272278181038  0.00912430709589525   0.0011076561739379
  0.0405005549463601 0.000479458720631277   0.0107606313849252   0.0006381058413979   0.0107324082336988  0.00103937148695221
  0.0411080632705555 0.000486650601440766   0.0129271450770101   0.0007188801417814   0.0118928604141258 0.000975424902483995
  0.0417246842196139  0.00049395036046234   0.0144168270692541   0.0007858499252692    0.012434431756783 0.000915528936737322
  0.0423505544829081 0.000501359615869277   0.0121023791571654   0.0006849242574335     0.01227870868885 0.000859416272424816
  0.0429858128001517 0.000508880010107319   0.0111323168301392    0.000652895541817   0.0114466107675341 0.000806838237939435
   0.043630599992154 0.000516513210258936   0.0095934582020455   0.0006136516269839   0.0100533350730895 0.000757563411492596
  0.0442850589920363 0.000524260908412808   0.0071270125047105   0.0005082151381355  0.00829148365364067 0.000711376338935712
  0.0449493348769168 0.000532124822039021   0.0061039844575901   0.0002797739076257  0.00640312558141642 0.000668076355103987
  0.0456235749000706 0.000541217593743191   0.0043862733687857    0.000218955753535  0.00464372780974343 0.000627480764762038
  0.0463079285235716 0.000548208294785149    0.003072471961526   0.0001757439710329  0.00323904770597873 0.000589402518191359
  0.0470025474514252 0.000556431419206936   0.0023182490548588   0.0001498030996151  0.00235214032569041 0.000553691944014273
  0.0477075856631966 0.000564777890495021   0.0019037923670678     0.00014226344149  0.00205041534307056 0.000520193249044601
  0.0484231994481445    0.000574428626956   0.0022038874759051   0.0001610081267312  0.00229732616889818 0.000488768342771914
  0.0491495474398667 0.000581848302235234   0.0030580024018541   0.0001852140646363  0.00295778159610137 0.000459275448878363
  0.0498867906514647 0.000590576026768766   0.0039820308412145   0.0002123237997552  0.00383106820670266 0.000431601241379657
  0.0506350925112366 0.000600667593188851   0.0045273061752784   0.0002383524078109  0.00468623729359692 0.000405630124889725
  0.0513946188989052 0.000609677607086681   0.0055384325403107   0.0002820893416334  0.00531202070649958 0.000381249100453781
  0.0521655381823887 0.000618822771192979   0.0056786258355222   0.0002858751399021   0.0055568582070257 0.000358360671369475
  0.0529480212551246 0.000628105112760851   0.0057493453555032    0.000287385867086  0.00535830035039457 0.000336871028754301
  0.0537422415739514 0.000637526689452255   0.0046133138916843   0.0002315581247505  0.00475317363427263 0.000316692479571647
  0.0545483751975607 0.000647089589794043   0.0040512915871046   0.0002069098534501   0.0038666476871683 0.000297743027839536
  0.0553666008255241 0.000656795933640979   0.0032066283278807   0.0001689332194513  0.00288185996123086 0.000279945986363825
   0.056197099837907 0.000666647872645575   0.0019918737894477   0.0001154177891724  0.00199610610638911  0.00026322961659934
  0.0570400563354756 0.000676647590735277    0.001415727696105    8.76532828884e-05   0.0013733551143076 0.000247526794446844
  0.0578956571805077 0.000686797304596298   0.0011857488035935    7.67868141278e-05  0.00110480864209304 0.000232774699978988
  0.0587640920382153 0.000697099264165234   0.0011800241529036    7.74887342971e-05  0.00118816090585617 0.000218914529256708
  0.0596455534187885 0.000707555753127702   0.0014005690851999     8.4757018132e-05  0.00153172357711934 0.000205891226550418
  0.0605402367200703 0.000718169089424638   0.0018570190490262   0.0001061375765829  0.00198267462525803 0.000193653235419477
  0.0614483402708714    0.000728941625766   0.0024464096384691   0.0001311291378335   0.0023715880940453 0.000182152267230052
  0.0623700653749344 0.000739875750152511    0.002597240706181   0.0001366399515715  0.00256052458238931 0.000171343085806846
  0.0633056163555585 0.000750973886404766    0.002517109517411    0.000132345415235  0.00248085326464631 0.000161183307019389
  0.0642552006008918 0.000762238494700851   0.0023297273107084   0.0001257584207751  0.00214985407500268  0.00015163321219965
  0.0652190286099052 0.000773672072121362   0.0016904794745314    0.000102019743779  0.00166116888031562 0.000142655574375306
  0.0661973140390538 0.000785277153203191   0.0011568725377342    7.42348357918e-05  0.00115186656473104 0.000134215496383296
  0.0671902737496396 0.000797056310501234   0.0007773848358424    5.68019213874e-05 0.000756334011570796 0.000126280260001473
  0.0681981278558842 0.000809012155158766    0.000649854019093    5.06457205687e-05 0.000562079474527967 0.000118819185303341
  0.0692210997737224 0.000821147337486128   0.0005454326483074    4.41207133638e-05 0.000582648151820602 0.000111803499502296
  0.0702594162703283 0.000833464547548426   0.0007168798777485    5.35541884867e-05 0.000757318950855146 0.000105206214608127
  0.0713133075143832 0.000845966515761659    0.000904835504008    6.02509876704e-05 0.000977554041363139 9.90020132702346e-05
  0.0723830071270989 0.000858656013498085   0.0011651931727087    7.16556960963e-05  0.00112998340451876 9.31671422293893e-05
  0.0734687522340054 0.000871535853700553   0.0011832200645166    7.35850092038e-05  0.00113926752885185 8.76793128434811e-05
  0.0745707835175154 0.000884608891506043   0.0009919330132909    6.22671353338e-05 0.000994243045228457 8.25176081926848e-05
  0.0756893452702782 0.000897878024878638   0.0007507890518353    5.15671072259e-05 0.000747408912401429 7.76623963062976e-05
  0.0768246854493324  0.00091134619525183   0.0005062241138008    4.14251955823e-05 0.000488592553075031 7.30952490873748e-05
  0.0779770557310723 0.000925016388180596   0.0003155225436105    3.02297211109e-05 0.000304408102755277 6.87988665424527e-05
  0.0791467115670384 0.000938891634003319     0.00026629931964    2.81447269456e-05 0.000241340500270971 6.47570059523868e-05
   0.080333912240544 0.000952975008513362   0.0002836177512034    2.83469053894e-05 0.000288764328424782 6.09544156467998e-05
  0.0815389209241521 0.000967269633641064   0.0003440688625699    3.53444922661e-05 0.000388984296235677 5.73767730690447e-05
