#      z (A) rho (1e-6/A2) irho (1e-6/A2)
-112.10453611   1.00281306   0.00000000
-112.00453611   1.00283787   0.00000000
-111.90453611   1.00286289   0.00000000
-111.80453611   1.00288810   0.00000000
-111.70453611   1.00291352   0.00000000
-111.60453611   1.00293914   0.00000000
-111.50453611   1.00296497   0.00000000
-111.40453611   1.00299101   0.00000000
-111.30453611   1.00301725   0.00000000
-111.20453611   1.00304370   0.00000000
-111.10453611   1.00307037   0.00000000
-111.00453611   1.00309725   0.00000000
-110.90453611   1.00312434   0.00000000
-110.80453611   1.00315165   0.00000000
-110.70453611   1.00317917   0.00000000
-110.60453611   1.00320692   0.00000000
-110.50453611   1.00323489   0.00000000
-110.40453611   1.00326307   0.00000000
-110.30453611   1.00329149   0.00000000
-110.20453611   1.00332012   0.00000000
-110.10453611   1.00334899   0.00000000
-110.00453611   1.00337808   0.00000000
-109.90453611   1.00340740   0.00000000
-109.80453611   1.00343696   0.00000000
-109.70453611   1.00346674   0.00000000
-109.60453611   1.00349677   0.00000000
-109.50453611   1.00352703   0.00000000
-109.40453611   1.00355752   0.00000000
-109.30453611   1.00358826   0.00000000
-109.20453611   1.00361924   0.00000000
-109.10453611   1.00365046   0.00000000
-109.00453611   1.00368193   0.00000000
-108.90453611   1.00371364   0.00000000
-108.80453611   1.00374561   0.00000000
-108.70453611   1.00377782   0.00000000
-108.60453611   1.00381028   0.00000000
-108.50453611   1.00384300   0.00000000
-108.40453611   1.00387597   0.00000000
-108.30453611   1.00390920   0.00000000
-108.20453611   1.00394269   0.00000000
-108.10453611   1.00397644   0.00000000
-108.00453611   1.00401045   0.00000000
-107.90453611   1.00404472   0.00000000
-107.80453611   1.00407926   0.00000000
-107.70453611   1.00411407   0.00000000
-107.60453611   1.00414915   0.00000000
-107.50453611   1.00418450   0.00000000
-107.40453611   1.00422012   0.00000000
-107.30453611   1.00425602   0.00000000
-107.20453611   1.00429220   0.00000000
-107.10453611   1.00432865   0.00000000
-107.00453611   1.00436538   0.00000000
-106.90453611   1.00440240   0.00000000
-106.80453611   1.00443970   0.00000000
-106.70453611   1.00447729   0.00000000
-106.60453611   1.00451516   0.00000000
-106.50453611   1.00455333   0.00000000
-106.40453611   1.00459179   0.00000000
-106.30453611   1.00463054   0.00000000
-106.20453611   1.00466959   0.00000000
-106.10453611   1.00470894   0.00000000
-106.00453611   1.00474858   0.00000000
-105.90453611   1.00478853   0.00000000
-105.80453611   1.00482879   0.00000000
-105.70453611   1.00486935   0.00000000
-105.60453611   1.00491021   0.00000000
-105.50453611   1.00495139   0.00000000
-105.40453611   1.00499288   0.00000000
-105.30453611   1.00503469   0.00000000
-105.20453611   1.00507681   0.00000000
-105.10453611   1.00511925   0.00000000
-105.00453611   1.00516201   0.00000000
-104.90453611   1.00520509   0.00000000
-104.80453611   1.00524850   0.00000000
-104.70453611   1.00529223   0.00000000
-104.60453611   1.00533629   0.00000000
-104.50453611   1.00538069   0.00000000
-104.40453611   1.00542542   0.00000000
-104.30453611   1.00547048   0.00000000
-104.20453611   1.00551589   0.00000000
-104.10453611   1.00556163   0.00000000
-104.00453611   1.00560771   0.00000000
-103.90453611   1.00565414   0.00000000
-103.80453611   1.00570092   0.00000000
-103.70453611   1.00574804   0.00000000
-103.60453611   1.00579552   0.00000000
-103.50453611   1.00584335   0.00000000
-103.40453611   1.00589153   0.00000000
-103.30453611   1.00594008   0.00000000
-103.20453611   1.00598898   0.00000000
-103.10453611   1.00603825   0.00000000
-103.00453611   1.00608788   0.00000000
-102.90453611   1.00613788   0.00000000
-102.80453611   1.00618825   0.00000000
-102.70453611   1.00623899   0.00000000
-102.60453611   1.00629011   0.00000000
-102.50453611   1.00634160   0.00000000
-102.40453611   1.00639347   0.00000000
-102.30453611   1.00644573   0.00000000
-102.20453611   1.00649837   0.00000000
-102.10453611   1.00655139   0.00000000
-102.00453611   1.00660481   0.00000000
-101.90453611   1.00665861   0.00000000
-101.80453611   1.00671281   0.00000000
-101.70453611   1.00676741   0.00000000
-101.60453611   1.00682241   0.00000000
-101.50453611   1.00687780   0.00000000
-101.40453611   1.00693361   0.00000000
-101.30453611   1.00698981   0.00000000
-101.20453611   1.00704643   0.00000000
-101.10453611   1.00710346   0.00000000
-101.00453611   1.00716091   0.00000000
-100.90453611   1.00721877   0.00000000
-100.80453611   1.00727705   0.00000000
-100.70453611   1.00733575   0.00000000
-100.60453611   1.00739488   0.00000000
-100.50453611   1.00745443   0.00000000
-100.40453611   1.00751442   0.00000000
-100.30453611   1.00757484   0.00000000
-100.20453611   1.00763569   0.00000000
-100.10453611   1.00769698   0.00000000
-100.00453611   1.00775872   0.00000000
-99.90453611   1.00782089   0.00000000
-99.80453611   1.00788352   0.00000000
-99.70453611   1.00794659   0.00000000
-99.60453611   1.00801011   0.00000000
-99.50453611   1.00807409   0.00000000
-99.40453611   1.00813853   0.00000000
-99.30453611   1.00820343   0.00000000
-99.20453611   1.00826879   0.00000000
-99.10453611   1.00833461   0.00000000
-99.00453611   1.00840091   0.00000000
-98.90453611   1.00846767   0.00000000
-98.80453611   1.00853492   0.00000000
-98.70453611   1.00860263   0.00000000
-98.60453611   1.00867083   0.00000000
-98.50453611   1.00873952   0.00000000
-98.40453611   1.00880868   0.00000000
-98.30453611   1.00887834   0.00000000
-98.20453611   1.00894849   0.00000000
-98.10453611   1.00901914   0.00000000
-98.00453611   1.00909028   0.00000000
-97.90453611   1.00916192   0.00000000
-97.80453611   1.00923407   0.00000000
-97.70453611   1.00930673   0.00000000
-97.60453611   1.00937989   0.00000000
-97.50453611   1.00945357   0.00000000
-97.40453611   1.00952777   0.00000000
-97.30453611   1.00960248   0.00000000
-97.20453611   1.00967772   0.00000000
-97.10453611   1.00975348   0.00000000
-97.00453611   1.00982977   0.00000000
-96.90453611   1.00990660   0.00000000
-96.80453611   1.00998395   0.00000000
-96.70453611   1.01006185   0.00000000
-96.60453611   1.01014029   0.00000000
-96.50453611   1.01021927   0.00000000
-96.40453611   1.01029880   0.00000000
-96.30453611   1.01037888   0.00000000
-96.20453611   1.01045951   0.00000000
-96.10453611   1.01054071   0.00000000
-96.00453611   1.01062246   0.00000000
-95.90453611   1.01070478   0.00000000
-95.80453611   1.01078766   0.00000000
-95.70453611   1.01087111   0.00000000
-95.60453611   1.01095514   0.00000000
-95.50453611   1.01103975   0.00000000
-95.40453611   1.01112494   0.00000000
-95.30453611   1.01121071   0.00000000
-95.20453611   1.01129707   0.00000000
-95.10453611   1.01138401   0.00000000
-95.00453611   1.01147156   0.00000000
-94.90453611   1.01155970   0.00000000
-94.80453611   1.01164844   0.00000000
-94.70453611   1.01173779   0.00000000
-94.60453611   1.01182774   0.00000000
-94.50453611   1.01191831   0.00000000
-94.40453611   1.01200949   0.00000000
-94.30453611   1.01210129   0.00000000
-94.20453611   1.01219371   0.00000000
-94.10453611   1.01228676   0.00000000
-94.00453611   1.01238043   0.00000000
-93.90453611   1.01247474   0.00000000
-93.80453611   1.01256969   0.00000000
-93.70453611   1.01266527   0.00000000
-93.60453611   1.01276150   0.00000000
-93.50453611   1.01285838   0.00000000
-93.40453611   1.01295591   0.00000000
-93.30453611   1.01305409   0.00000000
-93.20453611   1.01315293   0.00000000
-93.10453611   1.01325243   0.00000000
-93.00453611   1.01335260   0.00000000
-92.90453611   1.01345343   0.00000000
-92.80453611   1.01355494   0.00000000
-92.70453611   1.01365713   0.00000000
-92.60453611   1.01376000   0.00000000
-92.50453611   1.01386355   0.00000000
-92.40453611   1.01396779   0.00000000
-92.30453611   1.01407272   0.00000000
-92.20453611   1.01417835   0.00000000
-92.10453611   1.01428468   0.00000000
-92.00453611   1.01439171   0.00000000
-91.90453611   1.01449945   0.00000000
-91.80453611   1.01460790   0.00000000
-91.70453611   1.01471707   0.00000000
-91.60453611   1.01482695   0.00000000
-91.50453611   1.01493756   0.00000000
-91.40453611   1.01504890   0.00000000
-91.30453611   1.01516096   0.00000000
-91.20453611   1.01527377   0.00000000
-91.10453611   1.01538731   0.00000000
-91.00453611   1.01550159   0.00000000
-90.90453611   1.01561662   0.00000000
-90.80453611   1.01573241   0.00000000
-90.70453611   1.01584895   0.00000000
-90.60453611   1.01596624   0.00000000
-90.50453611   1.01608430   0.00000000
-90.40453611   1.01620313   0.00000000
-90.30453611   1.01632273   0.00000000
-90.20453611   1.01644311   0.00000000
-90.10453611   1.01656427   0.00000000
-90.00453611   1.01668621   0.00000000
-89.90453611   1.01680894   0.00000000
-89.80453611   1.01693246   0.00000000
-89.70453611   1.01705678   0.00000000
-89.60453611   1.01718190   0.00000000
-89.50453611   1.01730783   0.00000000
-89.40453611   1.01743457   0.00000000
-89.30453611   1.01756212   0.00000000
-89.20453611   1.01769048   0.00000000
-89.10453611   1.01781968   0.00000000
-89.00453611   1.01794969   0.00000000
-88.90453611   1.01808054   0.00000000
-88.80453611   1.01821223   0.00000000
-88.70453611   1.01834475   0.00000000
-88.60453611   1.01847812   0.00000000
-88.50453611   1.01861234   0.00000000
-88.40453611   1.01874742   0.00000000
-88.30453611   1.01888335   0.00000000
-88.20453611   1.01902014   0.00000000
-88.10453611   1.01915780   0.00000000
-88.00453611   1.01929633   0.00000000
-87.90453611   1.01943573   0.00000000
-87.80453611   1.01957602   0.00000000
-87.70453611   1.01971719   0.00000000
-87.60453611   1.01985925   0.00000000
-87.50453611   1.02000221   0.00000000
-87.40453611   1.02014606   0.00000000
-87.30453611   1.02029082   0.00000000
-87.20453611   1.02043648   0.00000000
-87.10453611   1.02058306   0.00000000
-87.00453611   1.02073056   0.00000000
-86.90453611   1.02087897   0.00000000
-86.80453611   1.02102832   0.00000000
-86.70453611   1.02117859   0.00000000
-86.60453611   1.02132980   0.00000000
-86.50453611   1.02148195   0.00000000
-86.40453611   1.02163505   0.00000000
-86.30453611   1.02178910   0.00000000
-86.20453611   1.02194410   0.00000000
-86.10453611   1.02210006   0.00000000
-86.00453611   1.02225699   0.00000000
-85.90453611   1.02241488   0.00000000
-85.80453611   1.02257375   0.00000000
-85.70453611   1.02273360   0.00000000
-85.60453611   1.02289444   0.00000000
-85.50453611   1.02305626   0.00000000
-85.40453611   1.02321907   0.00000000
-85.30453611   1.02338289   0.00000000
-85.20453611   1.02354771   0.00000000
-85.10453611   1.02371354   0.00000000
-85.00453611   1.02388038   0.00000000
-84.90453611   1.02404824   0.00000000
-84.80453611   1.02421712   0.00000000
-84.70453611   1.02438704   0.00000000
-84.60453611   1.02455798   0.00000000
-84.50453611   1.02472997   0.00000000
-84.40453611   1.02490300   0.00000000
-84.30453611   1.02507708   0.00000000
-84.20453611   1.02525221   0.00000000
-84.10453611   1.02542840   0.00000000
-84.00453611   1.02560566   0.00000000
-83.90453611   1.02578399   0.00000000
-83.80453611   1.02596339   0.00000000
-83.70453611   1.02614387   0.00000000
-83.60453611   1.02632543   0.00000000
-83.50453611   1.02650809   0.00000000
-83.40453611   1.02669184   0.00000000
-83.30453611   1.02687669   0.00000000
-83.20453611   1.02706265   0.00000000
-83.10453611   1.02724972   0.00000000
-83.00453611   1.02743791   0.00000000
-82.90453611   1.02762722   0.00000000
-82.80453611   1.02781765   0.00000000
-82.70453611   1.02800922   0.00000000
-82.60453611   1.02820193   0.00000000
-82.50453611   1.02839578   0.00000000
-82.40453611   1.02859078   0.00000000
-82.30453611   1.02878693   0.00000000
-82.20453611   1.02898424   0.00000000
-82.10453611   1.02918272   0.00000000
-82.00453611   1.02938237   0.00000000
-81.90453611   1.02958319   0.00000000
-81.80453611   1.02978520   0.00000000
-81.70453611   1.02998839   0.00000000
-81.60453611   1.03019277   0.00000000
-81.50453611   1.03039836   0.00000000
-81.40453611   1.03060514   0.00000000
-81.30453611   1.03081314   0.00000000
-81.20453611   1.03102235   0.00000000
-81.10453611   1.03123278   0.00000000
-81.00453611   1.03144443   0.00000000
-80.90453611   1.03165732   0.00000000
-80.80453611   1.03187144   0.00000000
-80.70453611   1.03208681   0.00000000
-80.60453611   1.03230342   0.00000000
-80.50453611   1.03252129   0.00000000
-80.40453611   1.03274042   0.00000000
-80.30453611   1.03296081   0.00000000
-80.20453611   1.03318248   0.00000000
-80.10453611   1.03340542   0.00000000
-80.00453611   1.03362965   0.00000000
-79.90453611   1.03385516   0.00000000
-79.80453611   1.03408197   0.00000000
-79.70453611   1.03431007   0.00000000
-79.60453611   1.03453948   0.00000000
-79.50453611   1.03477021   0.00000000
-79.40453611   1.03500225   0.00000000
-79.30453611   1.03523562   0.00000000
-79.20453611   1.03547031   0.00000000
-79.10453611   1.03570634   0.00000000
-79.00453611   1.03594371   0.00000000
-78.90453611   1.03618242   0.00000000
-78.80453611   1.03642249   0.00000000
-78.70453611   1.03666392   0.00000000
-78.60453611   1.03690671   0.00000000
-78.50453611   1.03715088   0.00000000
-78.40453611   1.03739642   0.00000000
-78.30453611   1.03764334   0.00000000
-78.20453611   1.03789165   0.00000000
-78.10453611   1.03814136   0.00000000
-78.00453611   1.03839246   0.00000000
-77.90453611   1.03864497   0.00000000
-77.80453611   1.03889890   0.00000000
-77.70453611   1.03915424   0.00000000
-77.60453611   1.03941101   0.00000000
-77.50453611   1.03966921   0.00000000
-77.40453611   1.03992885   0.00000000
-77.30453611   1.04018993   0.00000000
-77.20453611   1.04045246   0.00000000
-77.10453611   1.04071645   0.00000000
-77.00453611   1.04098189   0.00000000
-76.90453611   1.04124881   0.00000000
-76.80453611   1.04151720   0.00000000
-76.70453611   1.04178706   0.00000000
-76.60453611   1.04205842   0.00000000
-76.50453611   1.04233127   0.00000000
-76.40453611   1.04260562   0.00000000
-76.30453611   1.04288147   0.00000000
-76.20453611   1.04315883   0.00000000
-76.10453611   1.04343771   0.00000000
-76.00453611   1.04371812   0.00000000
-75.90453611   1.04400006   0.00000000
-75.80453611   1.04428353   0.00000000
-75.70453611   1.04456855   0.00000000
-75.60453611   1.04485511   0.00000000
-75.50453611   1.04514323   0.00000000
-75.40453611   1.04543292   0.00000000
-75.30453611   1.04572417   0.00000000
-75.20453611   1.04601699   0.00000000
-75.10453611   1.04631140   0.00000000
-75.00453611   1.04660740   0.00000000
-74.90453611   1.04690499   0.00000000
-74.80453611   1.04720418   0.00000000
-74.70453611   1.04750498   0.00000000
-74.60453611   1.04780739   0.00000000
-74.50453611   1.04811142   0.00000000
-74.40453611   1.04841708   0.00000000
-74.30453611   1.04872437   0.00000000
-74.20453611   1.04903330   0.00000000
-74.10453611   1.04934388   0.00000000
-74.00453611   1.04965610   0.00000000
-73.90453611   1.04996999   0.00000000
-73.80453611   1.05028555   0.00000000
-73.70453611   1.05060277   0.00000000
-73.60453611   1.05092168   0.00000000
-73.50453611   1.05124227   0.00000000
-73.40453611   1.05156455   0.00000000
-73.30453611   1.05188853   0.00000000
-73.20453611   1.05221422   0.00000000
-73.10453611   1.05254161   0.00000000
-73.00453611   1.05287073   0.00000000
-72.90453611   1.05320157   0.00000000
-72.80453611   1.05353415   0.00000000
-72.70453611   1.05386846   0.00000000
-72.60453611   1.05420452   0.00000000
-72.50453611   1.05454232   0.00000000
-72.40453611   1.05488189   0.00000000
-72.30453611   1.05522323   0.00000000
-72.20453611   1.05556633   0.00000000
-72.10453611   1.05591121   0.00000000
-72.00453611   1.05625788   0.00000000
-71.90453611   1.05660634   0.00000000
-71.80453611   1.05695660   0.00000000
-71.70453611   1.05730867   0.00000000
-71.60453611   1.05766255   0.00000000
-71.50453611   1.05801825   0.00000000
-71.40453611   1.05837577   0.00000000
-71.30453611   1.05873513   0.00000000
-71.20453611   1.05909633   0.00000000
-71.10453611   1.05945937   0.00000000
-71.00453611   1.05982426   0.00000000
-70.90453611   1.06019102   0.00000000
-70.80453611   1.06055965   0.00000000
-70.70453611   1.06093014   0.00000000
-70.60453611   1.06130252   0.00000000
-70.50453611   1.06167679   0.00000000
-70.40453611   1.06205295   0.00000000
-70.30453611   1.06243101   0.00000000
-70.20453611   1.06281098   0.00000000
-70.10453611   1.06319286   0.00000000
-70.00453611   1.06357667   0.00000000
-69.90453611   1.06396241   0.00000000
-69.80453611   1.06435008   0.00000000
-69.70453611   1.06473969   0.00000000
-69.60453611   1.06513126   0.00000000
-69.50453611   1.06552478   0.00000000
-69.40453611   1.06592027   0.00000000
-69.30453611   1.06631772   0.00000000
-69.20453611   1.06671715   0.00000000
-69.10453611   1.06711857   0.00000000
-69.00453611   1.06752198   0.00000000
-68.90453611   1.06792739   0.00000000
-68.80453611   1.06833480   0.00000000
-68.70453611   1.06874423   0.00000000
-68.60453611   1.06915567   0.00000000
-68.50453611   1.06956914   0.00000000
-68.40453611   1.06998465   0.00000000
-68.30453611   1.07040219   0.00000000
-68.20453611   1.07082178   0.00000000
-68.10453611   1.07124343   0.00000000
-68.00453611   1.07166714   0.00000000
-67.90453611   1.07209292   0.00000000
-67.80453611   1.07252077   0.00000000
-67.70453611   1.07295070   0.00000000
-67.60453611   1.07338273   0.00000000
-67.50453611   1.07381685   0.00000000
-67.40453611   1.07425307   0.00000000
-67.30453611   1.07469141   0.00000000
-67.20453611   1.07513186   0.00000000
-67.10453611   1.07557444   0.00000000
-67.00453611   1.07601915   0.00000000
-66.90453611   1.07646600   0.00000000
-66.80453611   1.07691500   0.00000000
-66.70453611   1.07736615   0.00000000
-66.60453611   1.07781946   0.00000000
-66.50453611   1.07827493   0.00000000
-66.40453611   1.07873258   0.00000000
-66.30453611   1.07919242   0.00000000
-66.20453611   1.07965444   0.00000000
-66.10453611   1.08011865   0.00000000
-66.00453611   1.08058507   0.00000000
-65.90453611   1.08105370   0.00000000
-65.80453611   1.08152455   0.00000000
-65.70453611   1.08199762   0.00000000
-65.60453611   1.08247292   0.00000000
-65.50453611   1.08295046   0.00000000
-65.40453611   1.08343025   0.00000000
-65.30453611   1.08391229   0.00000000
-65.20453611   1.08439658   0.00000000
-65.10453611   1.08488315   0.00000000
-65.00453611   1.08537199   0.00000000
-64.90453611   1.08586311   0.00000000
-64.80453611   1.08635651   0.00000000
-64.70453611   1.08685222   0.00000000
-64.60453611   1.08735022   0.00000000
-64.50453611   1.08785054   0.00000000
-64.40453611   1.08835317   0.00000000
-64.30453611   1.08885812   0.00000000
-64.20453611   1.08936541   0.00000000
-64.10453611   1.08987503   0.00000000
-64.00453611   1.09038700   0.00000000
-63.90453611   1.09090132   0.00000000
-63.80453611   1.09141799   0.00000000
-63.70453611   1.09193704   0.00000000
-63.60453611   1.09245846   0.00000000
-63.50453611   1.09298226   0.00000000
-63.40453611   1.09350844   0.00000000
-63.30453611   1.09403703   0.00000000
-63.20453611   1.09456801   0.00000000
-63.10453611   1.09510140   0.00000000
-63.00453611   1.09563721   0.00000000
-62.90453611   1.09617544   0.00000000
-62.80453611   1.09671610   0.00000000
-62.70453611   1.09725920   0.00000000
-62.60453611   1.09780474   0.00000000
-62.50453611   1.09835273   0.00000000
-62.40453611   1.09890319   0.00000000
-62.30453611   1.09945610   0.00000000
-62.20453611   1.10001149   0.00000000
-62.10453611   1.10056936   0.00000000
-62.00453611   1.10112972   0.00000000
-61.90453611   1.10169257   0.00000000
-61.80453611   1.10225792   0.00000000
-61.70453611   1.10282578   0.00000000
-61.60453611   1.10339615   0.00000000
-61.50453611   1.10396905   0.00000000
-61.40453611   1.10454447   0.00000000
