#      z (A) rho (1e-6/A2) irho (1e-6/A2)
-151.96179144   1.00235233   0.00000000
-151.86179144   1.00236762   0.00000000
-151.76179144   1.00238300   0.00000000
-151.66179144   1.00239848   0.00000000
-151.56179144   1.00241404   0.00000000
-151.46179144   1.00242970   0.00000000
-151.36179144   1.00244545   0.00000000
-151.26179144   1.00246130   0.00000000
-151.16179144   1.00247723   0.00000000
-151.06179144   1.00249326   0.00000000
-150.96179144   1.00250939   0.00000000
-150.86179144   1.00252561   0.00000000
-150.76179144   1.00254193   0.00000000
-150.66179144   1.00255834   0.00000000
-150.56179144   1.00257485   0.00000000
-150.46179144   1.00259146   0.00000000
-150.36179144   1.00260816   0.00000000
-150.26179144   1.00262496   0.00000000
-150.16179144   1.00264187   0.00000000
-150.06179144   1.00265887   0.00000000
-149.96179144   1.00267597   0.00000000
-149.86179144   1.00269317   0.00000000
-149.76179144   1.00271047   0.00000000
-149.66179144   1.00272787   0.00000000
-149.56179144   1.00274538   0.00000000
-149.46179144   1.00276298   0.00000000
-149.36179144   1.00278069   0.00000000
-149.26179144   1.00279851   0.00000000
-149.16179144   1.00281642   0.00000000
-149.06179144   1.00283444   0.00000000
-148.96179144   1.00285257   0.00000000
-148.86179144   1.00287080   0.00000000
-148.76179144   1.00288914   0.00000000
-148.66179144   1.00290758   0.00000000
-148.56179144   1.00292614   0.00000000
-148.46179144   1.00294480   0.00000000
-148.36179144   1.00296356   0.00000000
-148.26179144   1.00298244   0.00000000
-148.16179144   1.00300143   0.00000000
-148.06179144   1.00302052   0.00000000
-147.96179144   1.00303973   0.00000000
-147.86179144   1.00305905   0.00000000
-147.76179144   1.00307848   0.00000000
-147.66179144   1.00309802   0.00000000
-147.56179144   1.00311767   0.00000000
-147.46179144   1.00313744   0.00000000
-147.36179144   1.00315732   0.00000000
-147.26179144   1.00317732   0.00000000
-147.16179144   1.00319743   0.00000000
-147.06179144   1.00321765   0.00000000
-146.96179144   1.00323800   0.00000000
-146.86179144   1.00325846   0.00000000
-146.76179144   1.00327903   0.00000000
-146.66179144   1.00329973   0.00000000
-146.56179144   1.00332054   0.00000000
-146.46179144   1.00334148   0.00000000
-146.36179144   1.00336253   0.00000000
-146.26179144   1.00338370   0.00000000
-146.16179144   1.00340500   0.00000000
-146.06179144   1.00342641   0.00000000
-145.96179144   1.00344795   0.00000000
-145.86179144   1.00346961   0.00000000
-145.76179144   1.00349140   0.00000000
-145.66179144   1.00351331   0.00000000
-145.56179144   1.00353534   0.00000000
-145.46179144   1.00355750   0.00000000
-145.36179144   1.00357979   0.00000000
-145.26179144   1.00360220   0.00000000
-145.16179144   1.00362474   0.00000000
-145.06179144   1.00364740   0.00000000
-144.96179144   1.00367020   0.00000000
-144.86179144   1.00369312   0.00000000
-144.76179144   1.00371618   0.00000000
-144.66179144   1.00373936   0.00000000
-144.56179144   1.00376268   0.00000000
-144.46179144   1.00378613   0.00000000
-144.36179144   1.00380970   0.00000000
-144.26179144   1.00383342   0.00000000
-144.16179144   1.00385726   0.00000000
-144.06179144   1.00388125   0.00000000
-143.96179144   1.00390536   0.00000000
-143.86179144   1.00392961   0.00000000
-143.76179144   1.00395400   0.00000000
-143.66179144   1.00397853   0.00000000
-143.56179144   1.00400319   0.00000000
-143.46179144   1.00402799   0.00000000
-143.36179144   1.00405293   0.00000000
-143.26179144   1.00407801   0.00000000
-143.16179144   1.00410323   0.00000000
-143.06179144   1.00412859   0.00000000
-142.96179144   1.00415410   0.00000000
-142.86179144   1.00417974   0.00000000
-142.76179144   1.00420553   0.00000000
-142.66179144   1.00423146   0.00000000
-142.56179144   1.00425754   0.00000000
-142.46179144   1.00428376   0.00000000
-142.36179144   1.00431013   0.00000000
-142.26179144   1.00433665   0.00000000
-142.16179144   1.00436331   0.00000000
-142.06179144   1.00439012   0.00000000
-141.96179144   1.00441708   0.00000000
-141.86179144   1.00444419   0.00000000
-141.76179144   1.00447145   0.00000000
-141.66179144   1.00449886   0.00000000
-141.56179144   1.00452642   0.00000000
-141.46179144   1.00455414   0.00000000
-141.36179144   1.00458201   0.00000000
-141.26179144   1.00461003   0.00000000
-141.16179144   1.00463821   0.00000000
-141.06179144   1.00466654   0.00000000
-140.96179144   1.00469503   0.00000000
-140.86179144   1.00472367   0.00000000
-140.76179144   1.00475248   0.00000000
-140.66179144   1.00478144   0.00000000
-140.56179144   1.00481056   0.00000000
-140.46179144   1.00483984   0.00000000
-140.36179144   1.00486928   0.00000000
-140.26179144   1.00489888   0.00000000
-140.16179144   1.00492865   0.00000000
-140.06179144   1.00495858   0.00000000
-139.96179144   1.00498867   0.00000000
-139.86179144   1.00501893   0.00000000
-139.76179144   1.00504935   0.00000000
-139.66179144   1.00507994   0.00000000
-139.56179144   1.00511069   0.00000000
-139.46179144   1.00514161   0.00000000
-139.36179144   1.00517271   0.00000000
-139.26179144   1.00520397   0.00000000
-139.16179144   1.00523540   0.00000000
-139.06179144   1.00526700   0.00000000
-138.96179144   1.00529877   0.00000000
-138.86179144   1.00533072   0.00000000
-138.76179144   1.00536284   0.00000000
-138.66179144   1.00539513   0.00000000
-138.56179144   1.00542760   0.00000000
-138.46179144   1.00546025   0.00000000
-138.36179144   1.00549307   0.00000000
-138.26179144   1.00552607   0.00000000
-138.16179144   1.00555924   0.00000000
-138.06179144   1.00559260   0.00000000
-137.96179144   1.00562613   0.00000000
-137.86179144   1.00565985   0.00000000
-137.76179144   1.00569375   0.00000000
-137.66179144   1.00572783   0.00000000
-137.56179144   1.00576210   0.00000000
-137.46179144   1.00579654   0.00000000
-137.36179144   1.00583118   0.00000000
-137.26179144   1.00586600   0.00000000
-137.16179144   1.00590100   0.00000000
-137.06179144   1.00593620   0.00000000
-136.96179144   1.00597158   0.00000000
-136.86179144   1.00600715   0.00000000
-136.76179144   1.00604291   0.00000000
-136.66179144   1.00607887   0.00000000
-136.56179144   1.00611501   0.00000000
-136.46179144   1.00615135   0.00000000
-136.36179144   1.00618788   0.00000000
-136.26179144   1.00622461   0.00000000
-136.16179144   1.00626153   0.00000000
-136.06179144   1.00629865   0.00000000
-135.96179144   1.00633596   0.00000000
-135.86179144   1.00637348   0.00000000
-135.76179144   1.00641119   0.00000000
-135.66179144   1.00644911   0.00000000
-135.56179144   1.00648722   0.00000000
-135.46179144   1.00652554   0.00000000
-135.36179144   1.00656406   0.00000000
-135.26179144   1.00660278   0.00000000
-135.16179144   1.00664171   0.00000000
-135.06179144   1.00668084   0.00000000
-134.96179144   1.00672018   0.00000000
-134.86179144   1.00675973   0.00000000
-134.76179144   1.00679948   0.00000000
-134.66179144   1.00683945   0.00000000
-134.56179144   1.00687962   0.00000000
-134.46179144   1.00692001   0.00000000
-134.36179144   1.00696061   0.00000000
-134.26179144   1.00700142   0.00000000
-134.16179144   1.00704244   0.00000000
-134.06179144   1.00708368   0.00000000
-133.96179144   1.00712514   0.00000000
-133.86179144   1.00716682   0.00000000
-133.76179144   1.00720871   0.00000000
-133.66179144   1.00725082   0.00000000
-133.56179144   1.00729315   0.00000000
-133.46179144   1.00733570   0.00000000
-133.36179144   1.00737848   0.00000000
-133.26179144   1.00742147   0.00000000
-133.16179144   1.00746469   0.00000000
-133.06179144   1.00750814   0.00000000
-132.96179144   1.00755181   0.00000000
-132.86179144   1.00759571   0.00000000
-132.76179144   1.00763983   0.00000000
-132.66179144   1.00768419   0.00000000
-132.56179144   1.00772877   0.00000000
-132.46179144   1.00777359   0.00000000
-132.36179144   1.00781864   0.00000000
-132.26179144   1.00786392   0.00000000
-132.16179144   1.00790943   0.00000000
-132.06179144   1.00795518   0.00000000
-131.96179144   1.00800117   0.00000000
-131.86179144   1.00804739   0.00000000
-131.76179144   1.00809385   0.00000000
-131.66179144   1.00814055   0.00000000
-131.56179144   1.00818749   0.00000000
-131.46179144   1.00823468   0.00000000
-131.36179144   1.00828210   0.00000000
-131.26179144   1.00832977   0.00000000
-131.16179144   1.00837768   0.00000000
-131.06179144   1.00842584   0.00000000
-130.96179144   1.00847424   0.00000000
-130.86179144   1.00852290   0.00000000
-130.76179144   1.00857180   0.00000000
-130.66179144   1.00862095   0.00000000
-130.56179144   1.00867035   0.00000000
-130.46179144   1.00872000   0.00000000
-130.36179144   1.00876991   0.00000000
-130.26179144   1.00882007   0.00000000
-130.16179144   1.00887049   0.00000000
-130.06179144   1.00892116   0.00000000
-129.96179144   1.00897209   0.00000000
-129.86179144   1.00902328   0.00000000
-129.76179144   1.00907473   0.00000000
-129.66179144   1.00912644   0.00000000
-129.56179144   1.00917841   0.00000000
-129.46179144   1.00923064   0.00000000
-129.36179144   1.00928314   0.00000000
-129.26179144   1.00933591   0.00000000
-129.16179144   1.00938894   0.00000000
-129.06179144   1.00944223   0.00000000
-128.96179144   1.00949580   0.00000000
-128.86179144   1.00954964   0.00000000
-128.76179144   1.00960375   0.00000000
-128.66179144   1.00965813   0.00000000
-128.56179144   1.00971278   0.00000000
-128.46179144   1.00976771   0.00000000
-128.36179144   1.00982291   0.00000000
-128.26179144   1.00987839   0.00000000
-128.16179144   1.00993415   0.00000000
-128.06179144   1.00999019   0.00000000
-127.96179144   1.01004651   0.00000000
-127.86179144   1.01010311   0.00000000
-127.76179144   1.01015999   0.00000000
-127.66179144   1.01021716   0.00000000
-127.56179144   1.01027461   0.00000000
-127.46179144   1.01033235   0.00000000
-127.36179144   1.01039037   0.00000000
-127.26179144   1.01044869   0.00000000
-127.16179144   1.01050729   0.00000000
-127.06179144   1.01056619   0.00000000
-126.96179144   1.01062537   0.00000000
-126.86179144   1.01068486   0.00000000
-126.76179144   1.01074463   0.00000000
-126.66179144   1.01080470   0.00000000
-126.56179144   1.01086507   0.00000000
-126.46179144   1.01092574   0.00000000
-126.36179144   1.01098671   0.00000000
-126.26179144   1.01104798   0.00000000
-126.16179144   1.01110955   0.00000000
-126.06179144   1.01117142   0.00000000
-125.96179144   1.01123360   0.00000000
-125.86179144   1.01129609   0.00000000
-125.76179144   1.01135888   0.00000000
-125.66179144   1.01142198   0.00000000
-125.56179144   1.01148539   0.00000000
-125.46179144   1.01154912   0.00000000
-125.36179144   1.01161315   0.00000000
-125.26179144   1.01167750   0.00000000
-125.16179144   1.01174216   0.00000000
-125.06179144   1.01180714   0.00000000
-124.96179144   1.01187244   0.00000000
-124.86179144   1.01193805   0.00000000
-124.76179144   1.01200399   0.00000000
-124.66179144   1.01207024   0.00000000
-124.56179144   1.01213682   0.00000000
-124.46179144   1.01220373   0.00000000
-124.36179144   1.01227096   0.00000000
-124.26179144   1.01233851   0.00000000
-124.16179144   1.01240639   0.00000000
-124.06179144   1.01247461   0.00000000
-123.96179144   1.01254315   0.00000000
-123.86179144   1.01261203   0.00000000
-123.76179144   1.01268123   0.00000000
-123.66179144   1.01275078   0.00000000
-123.56179144   1.01282066   0.00000000
-123.46179144   1.01289087   0.00000000
-123.36179144   1.01296143   0.00000000
-123.26179144   1.01303232   0.00000000
-123.16179144   1.01310356   0.00000000
-123.06179144   1.01317514   0.00000000
-122.96179144   1.01324706   0.00000000
-122.86179144   1.01331933   0.00000000
-122.76179144   1.01339195   0.00000000
-122.66179144   1.01346491   0.00000000
-122.56179144   1.01353823   0.00000000
-122.46179144   1.01361189   0.00000000
-122.36179144   1.01368591   0.00000000
-122.26179144   1.01376028   0.00000000
-122.16179144   1.01383501   0.00000000
-122.06179144   1.01391009   0.00000000
-121.96179144   1.01398553   0.00000000
-121.86179144   1.01406133   0.00000000
-121.76179144   1.01413749   0.00000000
-121.66179144   1.01421402   0.00000000
-121.56179144   1.01429090   0.00000000
-121.46179144   1.01436816   0.00000000
-121.36179144   1.01444577   0.00000000
-121.26179144   1.01452376   0.00000000
-121.16179144   1.01460212   0.00000000
-121.06179144   1.01468084   0.00000000
-120.96179144   1.01475994   0.00000000
-120.86179144   1.01483942   0.00000000
-120.76179144   1.01491927   0.00000000
-120.66179144   1.01499949   0.00000000
-120.56179144   1.01508010   0.00000000
-120.46179144   1.01516108   0.00000000
-120.36179144   1.01524244   0.00000000
-120.26179144   1.01532419   0.00000000
-120.16179144   1.01540632   0.00000000
-120.06179144   1.01548884   0.00000000
-119.96179144   1.01557174   0.00000000
-119.86179144   1.01565503   0.00000000
-119.76179144   1.01573871   0.00000000
-119.66179144   1.01582279   0.00000000
-119.56179144   1.01590726   0.00000000
-119.46179144   1.01599212   0.00000000
-119.36179144   1.01607737   0.00000000
-119.26179144   1.01616303   0.00000000
-119.16179144   1.01624908   0.00000000
-119.06179144   1.01633554   0.00000000
-118.96179144   1.01642239   0.00000000
-118.86179144   1.01650965   0.00000000
-118.76179144   1.01659732   0.00000000
-118.66179144   1.01668539   0.00000000
-118.56179144   1.01677387   0.00000000
-118.46179144   1.01686276   0.00000000
-118.36179144   1.01695206   0.00000000
-118.26179144   1.01704177   0.00000000
-118.16179144   1.01713190   0.00000000
-118.06179144   1.01722245   0.00000000
-117.96179144   1.01731341   0.00000000
-117.86179144   1.01740479   0.00000000
-117.76179144   1.01749659   0.00000000
-117.66179144   1.01758882   0.00000000
-117.56179144   1.01768147   0.00000000
-117.46179144   1.01777454   0.00000000
-117.36179144   1.01786804   0.00000000
-117.26179144   1.01796197   0.00000000
-117.16179144   1.01805633   0.00000000
-117.06179144   1.01815112   0.00000000
-116.96179144   1.01824635   0.00000000
-116.86179144   1.01834201   0.00000000
-116.76179144   1.01843810   0.00000000
-116.66179144   1.01853464   0.00000000
-116.56179144   1.01863161   0.00000000
-116.46179144   1.01872903   0.00000000
-116.36179144   1.01882689   0.00000000
-116.26179144   1.01892519   0.00000000
-116.16179144   1.01902395   0.00000000
-116.06179144   1.01912314   0.00000000
-115.96179144   1.01922279   0.00000000
-115.86179144   1.01932289   0.00000000
-115.76179144   1.01942345   0.00000000
-115.66179144   1.01952445   0.00000000
-115.56179144   1.01962592   0.00000000
-115.46179144   1.01972784   0.00000000
-115.36179144   1.01983022   0.00000000
-115.26179144   1.01993307   0.00000000
-115.16179144   1.02003637   0.00000000
-115.06179144   1.02014014   0.00000000
-114.96179144   1.02024438   0.00000000
-114.86179144   1.02034909   0.00000000
-114.76179144   1.02045426   0.00000000
-114.66179144   1.02055991   0.00000000
-114.56179144   1.02066603   0.00000000
-114.46179144   1.02077262   0.00000000
-114.36179144   1.02087969   0.00000000
-114.26179144   1.02098724   0.00000000
-114.16179144   1.02109527   0.00000000
-114.06179144   1.02120379   0.00000000
-113.96179144   1.02131278   0.00000000
-113.86179144   1.02142226   0.00000000
-113.76179144   1.02153223   0.00000000
-113.66179144   1.02164268   0.00000000
-113.56179144   1.02175363   0.00000000
-113.46179144   1.02186507   0.00000000
-113.36179144   1.02197700   0.00000000
-113.26179144   1.02208943   0.00000000
-113.16179144   1.02220235   0.00000000
-113.06179144   1.02231578   0.00000000
-112.96179144   1.02242970   0.00000000
-112.86179144   1.02254413   0.00000000
-112.76179144   1.02265906   0.00000000
-112.66179144   1.02277450   0.00000000
-112.56179144   1.02289045   0.00000000
-112.46179144   1.02300690   0.00000000
-112.36179144   1.02312387   0.00000000
-112.26179144   1.02324135   0.00000000
-112.16179144   1.02335935   0.00000000
-112.06179144   1.02347786   0.00000000
-111.96179144   1.02359689   0.00000000
-111.86179144   1.02371644   0.00000000
-111.76179144   1.02383652   0.00000000
-111.66179144   1.02395712   0.00000000
-111.56179144   1.02407824   0.00000000
-111.46179144   1.02419990   0.00000000
-111.36179144   1.02432208   0.00000000
-111.26179144   1.02444479   0.00000000
-111.16179144   1.02456804   0.00000000
-111.06179144   1.02469182   0.00000000
-110.96179144   1.02481614   0.00000000
-110.86179144   1.02494100   0.00000000
-110.76179144   1.02506640   0.00000000
-110.66179144   1.02519234   0.00000000
-110.56179144   1.02531882   0.00000000
-110.46179144   1.02544586   0.00000000
-110.36179144   1.02557343   0.00000000
-110.26179144   1.02570156   0.00000000
-110.16179144   1.02583025   0.00000000
-110.06179144   1.02595948   0.00000000
-109.96179144   1.02608927   0.00000000
-109.86179144   1.02621962   0.00000000
-109.76179144   1.02635053   0.00000000
-109.66179144   1.02648200   0.00000000
-109.56179144   1.02661403   0.00000000
-109.46179144   1.02674662   0.00000000
-109.36179144   1.02687979   0.00000000
-109.26179144   1.02701352   0.00000000
-109.16179144   1.02714782   0.00000000
-109.06179144   1.02728270   0.00000000
-108.96179144   1.02741815   0.00000000
-108.86179144   1.02755418   0.00000000
-108.76179144   1.02769078   0.00000000
-108.66179144   1.02782797   0.00000000
-108.56179144   1.02796573   0.00000000
-108.46179144   1.02810408   0.00000000
-108.36179144   1.02824302   0.00000000
-108.26179144   1.02838255   0.00000000
-108.16179144   1.02852266   0.00000000
-108.06179144   1.02866337   0.00000000
-107.96179144   1.02880467   0.00000000
-107.86179144   1.02894657   0.00000000
-107.76179144   1.02908906   0.00000000
-107.66179144   1.02923216   0.00000000
-107.56179144   1.02937585   0.00000000
-107.46179144   1.02952015   0.00000000
-107.36179144   1.02966506   0.00000000
-107.26179144   1.02981057   0.00000000
-107.16179144   1.02995670   0.00000000
-107.06179144   1.03010343   0.00000000
-106.96179144   1.03025078   0.00000000
-106.86179144   1.03039874   0.00000000
-106.76179144   1.03054732   0.00000000
-106.66179144   1.03069652   0.00000000
-106.56179144   1.03084635   0.00000000
-106.46179144   1.03099679   0.00000000
-106.36179144   1.03114786   0.00000000
-106.26179144   1.03129956   0.00000000
-106.16179144   1.03145189   0.00000000
-106.06179144   1.03160485   0.00000000
-105.96179144   1.03175844   0.00000000
-105.86179144   1.03191267   0.00000000
-105.76179144   1.03206754   0.00000000
-105.66179144   1.03222304   0.00000000
-105.56179144   1.03237919   0.00000000
-105.46179144   1.03253598   0.00000000
-105.36179144   1.03269342   0.00000000
-105.26179144   1.03285151   0.00000000
-105.16179144   1.03301024   0.00000000
-105.06179144   1.03316963   0.00000000
-104.96179144   1.03332967   0.00000000
-104.86179144   1.03349037   0.00000000
-104.76179144   1.03365172   0.00000000
-104.66179144   1.03381374   0.00000000
-104.56179144   1.03397641   0.00000000
-104.46179144   1.03413976   0.00000000
-104.36179144   1.03430376   0.00000000
-104.26179144   1.03446844   0.00000000
-104.16179144   1.03463379   0.00000000
-104.06179144   1.03479981   0.00000000
-103.96179144   1.03496650   0.00000000
-103.86179144   1.03513387   0.00000000
-103.76179144   1.03530192   0.00000000
-103.66179144   1.03547065   0.00000000
-103.56179144   1.03564007   0.00000000
-103.46179144   1.03581017   0.00000000
-103.36179144   1.03598095   0.00000000
-103.26179144   1.03615243   0.00000000
-103.16179144   1.03632460   0.00000000
-103.06179144   1.03649746   0.00000000
-102.96179144   1.03667101   0.00000000
-102.86179144   1.03684527   0.00000000
-102.76179144   1.03702022   0.00000000
-102.66179144   1.03719588   0.00000000
-102.56179144   1.03737224   0.00000000
-102.46179144   1.03754931   0.00000000
-102.36179144   1.03772708   0.00000000
-102.26179144   1.03790557   0.00000000
