#      z (A) rho (1e-6/A2) irho (1e-6/A2)
-148.47974970   6.22367900   0.00013499
-148.37974970   6.22366356   0.00013589
-148.27974970   6.22364802   0.00013679
-148.17974970   6.22363239   0.00013770
-148.07974970   6.22361667   0.00013862
-147.97974970   6.22360084   0.00013954
-147.87974970   6.22358493   0.00014046
-147.77974970   6.22356891   0.00014139
-147.67974970   6.22355280   0.00014233
-147.57974970   6.22353660   0.00014327
-147.47974970   6.22352029   0.00014422
-147.37974970   6.22350389   0.00014517
-147.27974970   6.22348738   0.00014613
-147.17974970   6.22347078   0.00014710
-147.07974970   6.22345408   0.00014807
-146.97974970   6.22343727   0.00014905
-146.87974970   6.22342037   0.00015003
-146.77974970   6.22340336   0.00015102
-146.67974970   6.22338625   0.00015202
-146.57974970   6.22336904   0.00015302
-146.47974970   6.22335173   0.00015402
-146.37974970   6.22333431   0.00015504
-146.27974970   6.22331679   0.00015606
-146.17974970   6.22329916   0.00015708
-146.07974970   6.22328143   0.00015811
-145.97974970   6.22326359   0.00015915
-145.87974970   6.22324564   0.00016019
-145.77974970   6.22322759   0.00016124
-145.67974970   6.22320943   0.00016230
-145.57974970   6.22319116   0.00016336
-145.47974970   6.22317278   0.00016443
-145.37974970   6.22315429   0.00016551
-145.27974970   6.22313570   0.00016659
-145.17974970   6.22311699   0.00016768
-145.07974970   6.22309817   0.00016877
-144.97974970   6.22307924   0.00016987
-144.87974970   6.22306019   0.00017098
-144.77974970   6.22304104   0.00017209
-144.67974970   6.22302177   0.00017321
-144.57974970   6.22300238   0.00017434
-144.47974970   6.22298288   0.00017548
-144.37974970   6.22296327   0.00017662
-144.27974970   6.22294354   0.00017776
-144.17974970   6.22292369   0.00017892
-144.07974970   6.22290373   0.00018008
-143.97974970   6.22288365   0.00018125
-143.87974970   6.22286345   0.00018242
-143.77974970   6.22284313   0.00018360
-143.67974970   6.22282269   0.00018479
-143.57974970   6.22280213   0.00018599
-143.47974970   6.22278145   0.00018719
-143.37974970   6.22276065   0.00018840
-143.27974970   6.22273973   0.00018962
-143.17974970   6.22271868   0.00019084
-143.07974970   6.22269751   0.00019207
-142.97974970   6.22267622   0.00019331
-142.87974970   6.22265480   0.00019456
-142.77974970   6.22263325   0.00019581
-142.67974970   6.22261158   0.00019707
-142.57974970   6.22258979   0.00019834
-142.47974970   6.22256787   0.00019961
-142.37974970   6.22254581   0.00020090
-142.27974970   6.22252363   0.00020219
-142.17974970   6.22250133   0.00020348
-142.07974970   6.22247889   0.00020479
-141.97974970   6.22245632   0.00020610
-141.87974970   6.22243362   0.00020742
-141.77974970   6.22241078   0.00020875
-141.67974970   6.22238782   0.00021009
-141.57974970   6.22236472   0.00021143
-141.47974970   6.22234149   0.00021278
-141.37974970   6.22231812   0.00021414
-141.27974970   6.22229462   0.00021551
-141.17974970   6.22227098   0.00021688
-141.07974970   6.22224721   0.00021826
-140.97974970   6.22222330   0.00021965
-140.87974970   6.22219925   0.00022105
-140.77974970   6.22217506   0.00022246
-140.67974970   6.22215073   0.00022387
-140.57974970   6.22212626   0.00022530
-140.47974970   6.22210166   0.00022673
-140.37974970   6.22207690   0.00022817
-140.27974970   6.22205201   0.00022962
-140.17974970   6.22202698   0.00023107
-140.07974970   6.22200180   0.00023254
-139.97974970   6.22197647   0.00023401
-139.87974970   6.22195101   0.00023549
-139.77974970   6.22192539   0.00023698
-139.67974970   6.22189963   0.00023848
-139.57974970   6.22187372   0.00023999
-139.47974970   6.22184766   0.00024150
-139.37974970   6.22182146   0.00024303
-139.27974970   6.22179510   0.00024456
-139.17974970   6.22176860   0.00024610
-139.07974970   6.22174194   0.00024765
-138.97974970   6.22171514   0.00024921
-138.87974970   6.22168817   0.00025078
-138.77974970   6.22166106   0.00025235
-138.67974970   6.22163379   0.00025394
-138.57974970   6.22160637   0.00025553
-138.47974970   6.22157879   0.00025714
-138.37974970   6.22155106   0.00025875
-138.27974970   6.22152317   0.00026037
-138.17974970   6.22149512   0.00026201
-138.07974970   6.22146691   0.00026365
-137.97974970   6.22143854   0.00026530
-137.87974970   6.22141001   0.00026695
-137.77974970   6.22138132   0.00026862
-137.67974970   6.22135247   0.00027030
-137.57974970   6.22132346   0.00027199
-137.47974970   6.22129428   0.00027369
-137.37974970   6.22126494   0.00027539
-137.27974970   6.22123544   0.00027711
-137.17974970   6.22120576   0.00027883
-137.07974970   6.22117593   0.00028057
-136.97974970   6.22114592   0.00028231
-136.87974970   6.22111575   0.00028407
-136.77974970   6.22108540   0.00028583
-136.67974970   6.22105489   0.00028761
-136.57974970   6.22102421   0.00028939
-136.47974970   6.22099335   0.00029119
-136.37974970   6.22096232   0.00029299
-136.27974970   6.22093112   0.00029481
-136.17974970   6.22089975   0.00029663
-136.07974970   6.22086820   0.00029847
-135.97974970   6.22083647   0.00030031
-135.87974970   6.22080457   0.00030217
-135.77974970   6.22077249   0.00030403
-135.67974970   6.22074023   0.00030591
-135.57974970   6.22070779   0.00030780
-135.47974970   6.22067518   0.00030969
-135.37974970   6.22064238   0.00031160
-135.27974970   6.22060940   0.00031352
-135.17974970   6.22057623   0.00031545
-135.07974970   6.22054289   0.00031739
-134.97974970   6.22050936   0.00031934
-134.87974970   6.22047564   0.00032130
-134.77974970   6.22044174   0.00032327
-134.67974970   6.22040765   0.00032525
-134.57974970   6.22037337   0.00032725
-134.47974970   6.22033891   0.00032925
-134.37974970   6.22030425   0.00033127
-134.27974970   6.22026941   0.00033329
-134.17974970   6.22023437   0.00033533
-134.07974970   6.22019914   0.00033738
-133.97974970   6.22016372   0.00033944
-133.87974970   6.22012810   0.00034151
-133.77974970   6.22009228   0.00034359
-133.67974970   6.22005628   0.00034569
-133.57974970   6.22002007   0.00034779
-133.47974970   6.21998367   0.00034991
-133.37974970   6.21994706   0.00035204
-133.27974970   6.21991026   0.00035418
-133.17974970   6.21987326   0.00035633
-133.07974970   6.21983605   0.00035850
-132.97974970   6.21979864   0.00036067
-132.87974970   6.21976103   0.00036286
-132.77974970   6.21972321   0.00036506
-132.67974970   6.21968519   0.00036727
-132.57974970   6.21964696   0.00036949
-132.47974970   6.21960853   0.00037173
-132.37974970   6.21956988   0.00037398
-132.27974970   6.21953103   0.00037624
-132.17974970   6.21949197   0.00037851
-132.07974970   6.21945269   0.00038079
-131.97974970   6.21941320   0.00038309
-131.87974970   6.21937350   0.00038540
-131.77974970   6.21933359   0.00038772
-131.67974970   6.21929346   0.00039005
-131.57974970   6.21925311   0.00039240
-131.47974970   6.21921254   0.00039476
-131.37974970   6.21917176   0.00039713
-131.27974970   6.21913076   0.00039952
-131.17974970   6.21908954   0.00040191
-131.07974970   6.21904809   0.00040432
-130.97974970   6.21900643   0.00040675
-130.87974970   6.21896454   0.00040918
-130.77974970   6.21892242   0.00041163
-130.67974970   6.21888008   0.00041410
-130.57974970   6.21883752   0.00041657
-130.47974970   6.21879473   0.00041906
-130.37974970   6.21875170   0.00042156
-130.27974970   6.21870845   0.00042408
-130.17974970   6.21866497   0.00042661
-130.07974970   6.21862126   0.00042915
-129.97974970   6.21857731   0.00043171
-129.87974970   6.21853313   0.00043428
-129.77974970   6.21848872   0.00043686
-129.67974970   6.21844406   0.00043946
-129.57974970   6.21839918   0.00044207
-129.47974970   6.21835405   0.00044469
-129.37974970   6.21830868   0.00044733
-129.27974970   6.21826308   0.00044998
-129.17974970   6.21821723   0.00045265
-129.07974970   6.21817114   0.00045533
-128.97974970   6.21812481   0.00045802
-128.87974970   6.21807823   0.00046073
-128.77974970   6.21803141   0.00046346
-128.67974970   6.21798434   0.00046619
-128.57974970   6.21793702   0.00046894
-128.47974970   6.21788945   0.00047171
-128.37974970   6.21784164   0.00047449
-128.27974970   6.21779357   0.00047729
-128.17974970   6.21774525   0.00048010
-128.07974970   6.21769667   0.00048292
-127.97974970   6.21764785   0.00048576
-127.87974970   6.21759876   0.00048862
-127.77974970   6.21754942   0.00049149
-127.67974970   6.21749982   0.00049437
-127.57974970   6.21744996   0.00049727
-127.47974970   6.21739984   0.00050019
-127.37974970   6.21734946   0.00050312
-127.27974970   6.21729882   0.00050606
-127.17974970   6.21724791   0.00050902
-127.07974970   6.21719674   0.00051200
-126.97974970   6.21714530   0.00051499
-126.87974970   6.21709360   0.00051800
-126.77974970   6.21704162   0.00052102
-126.67974970   6.21698938   0.00052406
-126.57974970   6.21693686   0.00052711
-126.47974970   6.21688408   0.00053018
-126.37974970   6.21683102   0.00053327
-126.27974970   6.21677768   0.00053637
-126.17974970   6.21672407   0.00053949
-126.07974970   6.21667018   0.00054262
-125.97974970   6.21661602   0.00054577
-125.87974970   6.21656158   0.00054894
-125.77974970   6.21650685   0.00055212
-125.67974970   6.21645184   0.00055532
-125.57974970   6.21639655   0.00055854
-125.47974970   6.21634098   0.00056177
-125.37974970   6.21628512   0.00056502
-125.27974970   6.21622898   0.00056829
-125.17974970   6.21617254   0.00057157
-125.07974970   6.21611582   0.00057487
-124.97974970   6.21605881   0.00057818
-124.87974970   6.21600150   0.00058152
-124.77974970   6.21594390   0.00058487
-124.67974970   6.21588601   0.00058823
-124.57974970   6.21582783   0.00059162
-124.47974970   6.21576934   0.00059502
-124.37974970   6.21571056   0.00059844
-124.27974970   6.21565148   0.00060187
-124.17974970   6.21559210   0.00060533
-124.07974970   6.21553241   0.00060880
-123.97974970   6.21547243   0.00061229
-123.87974970   6.21541214   0.00061579
-123.77974970   6.21535154   0.00061932
-123.67974970   6.21529064   0.00062286
-123.57974970   6.21522942   0.00062642
-123.47974970   6.21516790   0.00063000
-123.37974970   6.21510607   0.00063359
-123.27974970   6.21504393   0.00063721
-123.17974970   6.21498147   0.00064084
-123.07974970   6.21491870   0.00064449
-122.97974970   6.21485561   0.00064816
-122.87974970   6.21479220   0.00065185
-122.77974970   6.21472847   0.00065555
-122.67974970   6.21466443   0.00065928
-122.57974970   6.21460006   0.00066302
-122.47974970   6.21453537   0.00066679
-122.37974970   6.21447036   0.00067057
-122.27974970   6.21440502   0.00067437
-122.17974970   6.21433935   0.00067819
-122.07974970   6.21427335   0.00068202
-121.97974970   6.21420703   0.00068588
-121.87974970   6.21414037   0.00068976
-121.77974970   6.21407339   0.00069366
-121.67974970   6.21400606   0.00069757
-121.57974970   6.21393840   0.00070151
-121.47974970   6.21387041   0.00070546
-121.37974970   6.21380208   0.00070943
-121.27974970   6.21373341   0.00071343
-121.17974970   6.21366439   0.00071744
-121.07974970   6.21359504   0.00072148
-120.97974970   6.21352534   0.00072553
-120.87974970   6.21345530   0.00072960
-120.77974970   6.21338491   0.00073370
-120.67974970   6.21331417   0.00073781
-120.57974970   6.21324308   0.00074195
-120.47974970   6.21317164   0.00074610
-120.37974970   6.21309985   0.00075028
-120.27974970   6.21302771   0.00075447
-120.17974970   6.21295521   0.00075869
-120.07974970   6.21288235   0.00076293
-119.97974970   6.21280914   0.00076718
-119.87974970   6.21273557   0.00077146
-119.77974970   6.21266163   0.00077576
-119.67974970   6.21258733   0.00078008
-119.57974970   6.21251267   0.00078443
-119.47974970   6.21243765   0.00078879
-119.37974970   6.21236226   0.00079317
-119.27974970   6.21228649   0.00079758
-119.17974970   6.21221036   0.00080201
-119.07974970   6.21213386   0.00080646
-118.97974970   6.21205699   0.00081093
-118.87974970   6.21197974   0.00081542
-118.77974970   6.21190211   0.00081994
-118.67974970   6.21182411   0.00082447
-118.57974970   6.21174573   0.00082903
-118.47974970   6.21166697   0.00083361
-118.37974970   6.21158782   0.00083822
-118.27974970   6.21150830   0.00084284
-118.17974970   6.21142838   0.00084749
-118.07974970   6.21134809   0.00085216
-117.97974970   6.21126740   0.00085685
-117.87974970   6.21118632   0.00086157
-117.77974970   6.21110486   0.00086631
-117.67974970   6.21102300   0.00087107
-117.57974970   6.21094074   0.00087585
-117.47974970   6.21085809   0.00088066
-117.37974970   6.21077505   0.00088549
-117.27974970   6.21069160   0.00089034
-117.17974970   6.21060776   0.00089522
-117.07974970   6.21052351   0.00090012
-116.97974970   6.21043886   0.00090504
-116.87974970   6.21035380   0.00090999
-116.77974970   6.21026833   0.00091496
-116.67974970   6.21018246   0.00091995
-116.57974970   6.21009618   0.00092497
-116.47974970   6.21000949   0.00093001
-116.37974970   6.20992238   0.00093508
-116.27974970   6.20983486   0.00094017
-116.17974970   6.20974692   0.00094528
-116.07974970   6.20965856   0.00095042
-115.97974970   6.20956979   0.00095559
-115.87974970   6.20948059   0.00096077
-115.77974970   6.20939097   0.00096599
-115.67974970   6.20930092   0.00097122
-115.57974970   6.20921045   0.00097648
-115.47974970   6.20911955   0.00098177
-115.37974970   6.20902822   0.00098708
-115.27974970   6.20893646   0.00099242
-115.17974970   6.20884427   0.00099778
-115.07974970   6.20875164   0.00100317
-114.97974970   6.20865858   0.00100858
-114.87974970   6.20856508   0.00101402
-114.77974970   6.20847114   0.00101948
-114.67974970   6.20837675   0.00102497
-114.57974970   6.20828193   0.00103049
-114.47974970   6.20818666   0.00103603
-114.37974970   6.20809094   0.00104160
-114.27974970   6.20799478   0.00104719
-114.17974970   6.20789817   0.00105281
-114.07974970   6.20780110   0.00105845
-113.97974970   6.20770358   0.00106412
-113.87974970   6.20760561   0.00106982
-113.77974970   6.20750718   0.00107555
-113.67974970   6.20740829   0.00108130
-113.57974970   6.20730895   0.00108708
-113.47974970   6.20720914   0.00109288
-113.37974970   6.20710886   0.00109871
-113.27974970   6.20700813   0.00110457
-113.17974970   6.20690692   0.00111046
-113.07974970   6.20680525   0.00111637
-112.97974970   6.20670310   0.00112231
-112.87974970   6.20660049   0.00112828
-112.77974970   6.20649740   0.00113428
-112.67974970   6.20639383   0.00114030
-112.57974970   6.20628979   0.00114635
-112.47974970   6.20618527   0.00115243
-112.37974970   6.20608026   0.00115854
-112.27974970   6.20597478   0.00116467
-112.17974970   6.20586881   0.00117084
-112.07974970   6.20576235   0.00117703
-111.97974970   6.20565540   0.00118325
-111.87974970   6.20554797   0.00118950
-111.77974970   6.20544004   0.00119577
-111.67974970   6.20533162   0.00120208
-111.57974970   6.20522270   0.00120841
-111.47974970   6.20511329   0.00121478
-111.37974970   6.20500337   0.00122117
-111.27974970   6.20489296   0.00122759
-111.17974970   6.20478204   0.00123404
-111.07974970   6.20467062   0.00124052
-110.97974970   6.20455869   0.00124703
-110.87974970   6.20444626   0.00125357
-110.77974970   6.20433331   0.00126014
-110.67974970   6.20421986   0.00126674
-110.57974970   6.20410588   0.00127337
-110.47974970   6.20399140   0.00128003
-110.37974970   6.20387639   0.00128671
-110.27974970   6.20376087   0.00129343
-110.17974970   6.20364482   0.00130018
-110.07974970   6.20352825   0.00130696
-109.97974970   6.20341116   0.00131377
-109.87974970   6.20329354   0.00132061
-109.77974970   6.20317539   0.00132749
-109.67974970   6.20305671   0.00133439
-109.57974970   6.20293750   0.00134132
-109.47974970   6.20281775   0.00134829
-109.37974970   6.20269747   0.00135528
-109.27974970   6.20257664   0.00136231
-109.17974970   6.20245528   0.00136937
-109.07974970   6.20233338   0.00137646
-108.97974970   6.20221093   0.00138358
-108.87974970   6.20208794   0.00139073
-108.77974970   6.20196439   0.00139792
-108.67974970   6.20184030   0.00140513
-108.57974970   6.20171566   0.00141238
-108.47974970   6.20159046   0.00141967
-108.37974970   6.20146471   0.00142698
-108.27974970   6.20133840   0.00143433
-108.17974970   6.20121153   0.00144170
-108.07974970   6.20108410   0.00144912
-107.97974970   6.20095610   0.00145656
-107.87974970   6.20082754   0.00146404
-107.77974970   6.20069841   0.00147155
-107.67974970   6.20056872   0.00147909
-107.57974970   6.20043845   0.00148667
-107.47974970   6.20030760   0.00149428
-107.37974970   6.20017619   0.00150192
-107.27974970   6.20004419   0.00150960
-107.17974970   6.19991162   0.00151731
-107.07974970   6.19977846   0.00152505
-106.97974970   6.19964472   0.00153283
-106.87974970   6.19951040   0.00154064
-106.77974970   6.19937549   0.00154849
-106.67974970   6.19923999   0.00155637
-106.57974970   6.19910389   0.00156428
-106.47974970   6.19896721   0.00157223
-106.37974970   6.19882993   0.00158022
-106.27974970   6.19869205   0.00158824
-106.17974970   6.19855357   0.00159629
-106.07974970   6.19841449   0.00160438
-105.97974970   6.19827481   0.00161250
-105.87974970   6.19813452   0.00162066
-105.77974970   6.19799362   0.00162886
-105.67974970   6.19785211   0.00163709
-105.57974970   6.19770999   0.00164535
-105.47974970   6.19756726   0.00165366
-105.37974970   6.19742391   0.00166199
-105.27974970   6.19727995   0.00167037
-105.17974970   6.19713536   0.00167877
-105.07974970   6.19699015   0.00168722
-104.97974970   6.19684432   0.00169570
-104.87974970   6.19669786   0.00170422
-104.77974970   6.19655077   0.00171277
-104.67974970   6.19640306   0.00172137
-104.57974970   6.19625471   0.00172999
-104.47974970   6.19610572   0.00173866
-104.37974970   6.19595610   0.00174736
-104.27974970   6.19580584   0.00175610
-104.17974970   6.19565494   0.00176488
-104.07974970   6.19550339   0.00177369
-103.97974970   6.19535120   0.00178254
-103.87974970   6.19519836   0.00179143
-103.77974970   6.19504488   0.00180036
-103.67974970   6.19489074   0.00180932
-103.57974970   6.19473594   0.00181833
-103.47974970   6.19458050   0.00182737
-103.37974970   6.19442439   0.00183645
-103.27974970   6.19426762   0.00184556
-103.17974970   6.19411019   0.00185472
-103.07974970   6.19395210   0.00186391
-102.97974970   6.19379334   0.00187315
-102.87974970   6.19363391   0.00188242
-102.77974970   6.19347381   0.00189173
-102.67974970   6.19331304   0.00190108
-102.57974970   6.19315159   0.00191047
-102.47974970   6.19298946   0.00191990
-102.37974970   6.19282665   0.00192937
-102.27974970   6.19266317   0.00193888
-102.17974970   6.19249900   0.00194843
-102.07974970   6.19233414   0.00195802
-101.97974970   6.19216859   0.00196764
-101.87974970   6.19200235   0.00197731
-101.77974970   6.19183542   0.00198702
-101.67974970   6.19166780   0.00199677
-101.57974970   6.19149948   0.00200656
-101.47974970   6.19133045   0.00201639
-101.37974970   6.19116073   0.00202626
-101.27974970   6.19099030   0.00203617
-101.17974970   6.19081917   0.00204613
-101.07974970   6.19064733   0.00205612
-100.97974970   6.19047478   0.00206616
-100.87974970   6.19030151   0.00207623
-100.77974970   6.19012753   0.00208635
-100.67974970   6.18995283   0.00209651
-100.57974970   6.18977742   0.00210671
-100.47974970   6.18960128   0.00211696
-100.37974970   6.18942442   0.00212725
-100.27974970   6.18924683   0.00213757
-100.17974970   6.18906851   0.00214795
-100.07974970   6.18888946   0.00215836
-99.97974970   6.18870968   0.00216881
-99.87974970   6.18852916   0.00217931
-99.77974970   6.18834791   0.00218986
-99.67974970   6.18816592   0.00220044
-99.57974970   6.18798318   0.00221107
-99.47974970   6.18779970   0.00222174
-99.37974970   6.18761547   0.00223245
-99.27974970   6.18743050   0.00224321
-99.17974970   6.18724477   0.00225401
-99.07974970   6.18705829   0.00226486
-98.97974970   6.18687106   0.00227575
-98.87974970   6.18668306   0.00228668
-98.77974970   6.18649431   0.00229766
-98.67974970   6.18630479   0.00230868
