#      z (A) rho (1e-6/A2) irho (1e-6/A2)
-170.30376279   6.28167916   0.00000000
-170.20376279   6.28165990   0.00000000
-170.10376279   6.28164054   0.00000000
-170.00376279   6.28162108   0.00000000
-169.90376279   6.28160152   0.00000000
-169.80376279   6.28158185   0.00000000
-169.70376279   6.28156208   0.00000000
-169.60376279   6.28154220   0.00000000
-169.50376279   6.28152222   0.00000000
-169.40376279   6.28150214   0.00000000
-169.30376279   6.28148195   0.00000000
-169.20376279   6.28146165   0.00000000
-169.10376279   6.28144124   0.00000000
-169.00376279   6.28142073   0.00000000
-168.90376279   6.28140011   0.00000000
-168.80376279   6.28137938   0.00000000
-168.70376279   6.28135855   0.00000000
-168.60376279   6.28133760   0.00000000
-168.50376279   6.28131654   0.00000000
-168.40376279   6.28129538   0.00000000
-168.30376279   6.28127410   0.00000000
-168.20376279   6.28125271   0.00000000
-168.10376279   6.28123121   0.00000000
-168.00376279   6.28120959   0.00000000
-167.90376279   6.28118787   0.00000000
-167.80376279   6.28116603   0.00000000
-167.70376279   6.28114407   0.00000000
-167.60376279   6.28112200   0.00000000
-167.50376279   6.28109982   0.00000000
-167.40376279   6.28107752   0.00000000
-167.30376279   6.28105510   0.00000000
-167.20376279   6.28103257   0.00000000
-167.10376279   6.28100992   0.00000000
-167.00376279   6.28098716   0.00000000
-166.90376279   6.28096427   0.00000000
-166.80376279   6.28094127   0.00000000
-166.70376279   6.28091814   0.00000000
-166.60376279   6.28089490   0.00000000
-166.50376279   6.28087153   0.00000000
-166.40376279   6.28084805   0.00000000
-166.30376279   6.28082444   0.00000000
-166.20376279   6.28080071   0.00000000
-166.10376279   6.28077686   0.00000000
-166.00376279   6.28075289   0.00000000
-165.90376279   6.28072879   0.00000000
-165.80376279   6.28070457   0.00000000
-165.70376279   6.28068022   0.00000000
-165.60376279   6.28065575   0.00000000
-165.50376279   6.28063115   0.00000000
-165.40376279   6.28060642   0.00000000
-165.30376279   6.28058157   0.00000000
-165.20376279   6.28055658   0.00000000
-165.10376279   6.28053148   0.00000000
-165.00376279   6.28050624   0.00000000
-164.90376279   6.28048087   0.00000000
-164.80376279   6.28045537   0.00000000
-164.70376279   6.28042974   0.00000000
-164.60376279   6.28040398   0.00000000
-164.50376279   6.28037809   0.00000000
-164.40376279   6.28035206   0.00000000
-164.30376279   6.28032591   0.00000000
-164.20376279   6.28029961   0.00000000
-164.10376279   6.28027319   0.00000000
-164.00376279   6.28024663   0.00000000
-163.90376279   6.28021993   0.00000000
-163.80376279   6.28019310   0.00000000
-163.70376279   6.28016613   0.00000000
-163.60376279   6.28013902   0.00000000
-163.50376279   6.28011178   0.00000000
-163.40376279   6.28008440   0.00000000
-163.30376279   6.28005687   0.00000000
-163.20376279   6.28002921   0.00000000
-163.10376279   6.28000141   0.00000000
-163.00376279   6.27997346   0.00000000
-162.90376279   6.27994538   0.00000000
-162.80376279   6.27991715   0.00000000
-162.70376279   6.27988878   0.00000000
-162.60376279   6.27986027   0.00000000
-162.50376279   6.27983161   0.00000000
-162.40376279   6.27980280   0.00000000
-162.30376279   6.27977386   0.00000000
-162.20376279   6.27974476   0.00000000
-162.10376279   6.27971552   0.00000000
-162.00376279   6.27968613   0.00000000
-161.90376279   6.27965659   0.00000000
-161.80376279   6.27962691   0.00000000
-161.70376279   6.27959707   0.00000000
-161.60376279   6.27956708   0.00000000
-161.50376279   6.27953695   0.00000000
-161.40376279   6.27950666   0.00000000
-161.30376279   6.27947622   0.00000000
-161.20376279   6.27944563   0.00000000
-161.10376279   6.27941488   0.00000000
-161.00376279   6.27938398   0.00000000
-160.90376279   6.27935293   0.00000000
-160.80376279   6.27932172   0.00000000
-160.70376279   6.27929035   0.00000000
-160.60376279   6.27925883   0.00000000
-160.50376279   6.27922715   0.00000000
-160.40376279   6.27919531   0.00000000
-160.30376279   6.27916331   0.00000000
-160.20376279   6.27913115   0.00000000
-160.10376279   6.27909883   0.00000000
-160.00376279   6.27906635   0.00000000
-159.90376279   6.27903371   0.00000000
-159.80376279   6.27900091   0.00000000
-159.70376279   6.27896795   0.00000000
-159.60376279   6.27893482   0.00000000
-159.50376279   6.27890152   0.00000000
-159.40376279   6.27886806   0.00000000
-159.30376279   6.27883444   0.00000000
-159.20376279   6.27880065   0.00000000
-159.10376279   6.27876669   0.00000000
-159.00376279   6.27873256   0.00000000
-158.90376279   6.27869826   0.00000000
-158.80376279   6.27866380   0.00000000
-158.70376279   6.27862916   0.00000000
-158.60376279   6.27859436   0.00000000
-158.50376279   6.27855938   0.00000000
-158.40376279   6.27852423   0.00000000
-158.30376279   6.27848890   0.00000000
-158.20376279   6.27845340   0.00000000
-158.10376279   6.27841773   0.00000000
-158.00376279   6.27838188   0.00000000
-157.90376279   6.27834586   0.00000000
-157.80376279   6.27830966   0.00000000
-157.70376279   6.27827328   0.00000000
-157.60376279   6.27823672   0.00000000
-157.50376279   6.27819998   0.00000000
-157.40376279   6.27816307   0.00000000
-157.30376279   6.27812597   0.00000000
-157.20376279   6.27808869   0.00000000
-157.10376279   6.27805123   0.00000000
-157.00376279   6.27801358   0.00000000
-156.90376279   6.27797576   0.00000000
-156.80376279   6.27793774   0.00000000
-156.70376279   6.27789954   0.00000000
-156.60376279   6.27786116   0.00000000
-156.50376279   6.27782259   0.00000000
-156.40376279   6.27778383   0.00000000
-156.30376279   6.27774488   0.00000000
-156.20376279   6.27770574   0.00000000
-156.10376279   6.27766642   0.00000000
-156.00376279   6.27762690   0.00000000
-155.90376279   6.27758719   0.00000000
-155.80376279   6.27754729   0.00000000
-155.70376279   6.27750719   0.00000000
-155.60376279   6.27746690   0.00000000
-155.50376279   6.27742641   0.00000000
-155.40376279   6.27738573   0.00000000
-155.30376279   6.27734485   0.00000000
-155.20376279   6.27730378   0.00000000
-155.10376279   6.27726251   0.00000000
-155.00376279   6.27722103   0.00000000
-154.90376279   6.27717936   0.00000000
-154.80376279   6.27713749   0.00000000
-154.70376279   6.27709541   0.00000000
-154.60376279   6.27705313   0.00000000
-154.50376279   6.27701065   0.00000000
-154.40376279   6.27696797   0.00000000
-154.30376279   6.27692508   0.00000000
-154.20376279   6.27688198   0.00000000
-154.10376279   6.27683868   0.00000000
-154.00376279   6.27679517   0.00000000
-153.90376279   6.27675145   0.00000000
-153.80376279   6.27670752   0.00000000
-153.70376279   6.27666338   0.00000000
-153.60376279   6.27661904   0.00000000
-153.50376279   6.27657447   0.00000000
-153.40376279   6.27652970   0.00000000
-153.30376279   6.27648471   0.00000000
-153.20376279   6.27643951   0.00000000
-153.10376279   6.27639409   0.00000000
-153.00376279   6.27634846   0.00000000
-152.90376279   6.27630261   0.00000000
-152.80376279   6.27625654   0.00000000
-152.70376279   6.27621025   0.00000000
-152.60376279   6.27616375   0.00000000
-152.50376279   6.27611702   0.00000000
-152.40376279   6.27607007   0.00000000
-152.30376279   6.27602289   0.00000000
-152.20376279   6.27597550   0.00000000
-152.10376279   6.27592788   0.00000000
-152.00376279   6.27588003   0.00000000
-151.90376279   6.27583196   0.00000000
-151.80376279   6.27578366   0.00000000
-151.70376279   6.27573513   0.00000000
-151.60376279   6.27568638   0.00000000
-151.50376279   6.27563739   0.00000000
-151.40376279   6.27558818   0.00000000
-151.30376279   6.27553873   0.00000000
-151.20376279   6.27548905   0.00000000
-151.10376279   6.27543913   0.00000000
-151.00376279   6.27538898   0.00000000
-150.90376279   6.27533860   0.00000000
-150.80376279   6.27528797   0.00000000
-150.70376279   6.27523711   0.00000000
-150.60376279   6.27518602   0.00000000
-150.50376279   6.27513468   0.00000000
-150.40376279   6.27508310   0.00000000
-150.30376279   6.27503128   0.00000000
-150.20376279   6.27497922   0.00000000
-150.10376279   6.27492692   0.00000000
-150.00376279   6.27487437   0.00000000
-149.90376279   6.27482158   0.00000000
-149.80376279   6.27476854   0.00000000
-149.70376279   6.27471525   0.00000000
-149.60376279   6.27466172   0.00000000
-149.50376279   6.27460793   0.00000000
-149.40376279   6.27455390   0.00000000
-149.30376279   6.27449962   0.00000000
-149.20376279   6.27444508   0.00000000
-149.10376279   6.27439029   0.00000000
-149.00376279   6.27433524   0.00000000
-148.90376279   6.27427994   0.00000000
-148.80376279   6.27422439   0.00000000
-148.70376279   6.27416858   0.00000000
-148.60376279   6.27411251   0.00000000
-148.50376279   6.27405618   0.00000000
-148.40376279   6.27399959   0.00000000
-148.30376279   6.27394273   0.00000000
-148.20376279   6.27388562   0.00000000
-148.10376279   6.27382824   0.00000000
-148.00376279   6.27377060   0.00000000
-147.90376279   6.27371270   0.00000000
-147.80376279   6.27365452   0.00000000
-147.70376279   6.27359608   0.00000000
-147.60376279   6.27353738   0.00000000
-147.50376279   6.27347840   0.00000000
-147.40376279   6.27341915   0.00000000
-147.30376279   6.27335963   0.00000000
-147.20376279   6.27329984   0.00000000
-147.10376279   6.27323977   0.00000000
-147.00376279   6.27317943   0.00000000
-146.90376279   6.27311881   0.00000000
-146.80376279   6.27305791   0.00000000
-146.70376279   6.27299674   0.00000000
-146.60376279   6.27293529   0.00000000
-146.50376279   6.27287356   0.00000000
-146.40376279   6.27281155   0.00000000
-146.30376279   6.27274925   0.00000000
-146.20376279   6.27268667   0.00000000
-146.10376279   6.27262381   0.00000000
-146.00376279   6.27256066   0.00000000
-145.90376279   6.27249722   0.00000000
-145.80376279   6.27243350   0.00000000
-145.70376279   6.27236949   0.00000000
-145.60376279   6.27230518   0.00000000
-145.50376279   6.27224059   0.00000000
-145.40376279   6.27217570   0.00000000
-145.30376279   6.27211052   0.00000000
-145.20376279   6.27204505   0.00000000
-145.10376279   6.27197928   0.00000000
-145.00376279   6.27191321   0.00000000
-144.90376279   6.27184685   0.00000000
-144.80376279   6.27178018   0.00000000
-144.70376279   6.27171322   0.00000000
-144.60376279   6.27164596   0.00000000
-144.50376279   6.27157839   0.00000000
-144.40376279   6.27151052   0.00000000
-144.30376279   6.27144234   0.00000000
-144.20376279   6.27137386   0.00000000
-144.10376279   6.27130507   0.00000000
-144.00376279   6.27123597   0.00000000
-143.90376279   6.27116656   0.00000000
-143.80376279   6.27109685   0.00000000
-143.70376279   6.27102682   0.00000000
-143.60376279   6.27095647   0.00000000
-143.50376279   6.27088582   0.00000000
-143.40376279   6.27081484   0.00000000
-143.30376279   6.27074356   0.00000000
-143.20376279   6.27067195   0.00000000
-143.10376279   6.27060002   0.00000000
-143.00376279   6.27052778   0.00000000
-142.90376279   6.27045521   0.00000000
-142.80376279   6.27038232   0.00000000
-142.70376279   6.27030911   0.00000000
-142.60376279   6.27023557   0.00000000
-142.50376279   6.27016171   0.00000000
-142.40376279   6.27008752   0.00000000
-142.30376279   6.27001300   0.00000000
-142.20376279   6.26993815   0.00000000
-142.10376279   6.26986297   0.00000000
-142.00376279   6.26978745   0.00000000
-141.90376279   6.26971161   0.00000000
-141.80376279   6.26963543   0.00000000
-141.70376279   6.26955891   0.00000000
-141.60376279   6.26948206   0.00000000
-141.50376279   6.26940486   0.00000000
-141.40376279   6.26932733   0.00000000
-141.30376279   6.26924946   0.00000000
-141.20376279   6.26917124   0.00000000
-141.10376279   6.26909268   0.00000000
-141.00376279   6.26901378   0.00000000
-140.90376279   6.26893453   0.00000000
-140.80376279   6.26885493   0.00000000
-140.70376279   6.26877499   0.00000000
-140.60376279   6.26869469   0.00000000
-140.50376279   6.26861404   0.00000000
-140.40376279   6.26853305   0.00000000
-140.30376279   6.26845169   0.00000000
-140.20376279   6.26836999   0.00000000
-140.10376279   6.26828792   0.00000000
-140.00376279   6.26820550   0.00000000
-139.90376279   6.26812272   0.00000000
-139.80376279   6.26803958   0.00000000
-139.70376279   6.26795608   0.00000000
-139.60376279   6.26787221   0.00000000
-139.50376279   6.26778799   0.00000000
-139.40376279   6.26770339   0.00000000
-139.30376279   6.26761843   0.00000000
-139.20376279   6.26753310   0.00000000
-139.10376279   6.26744740   0.00000000
-139.00376279   6.26736133   0.00000000
-138.90376279   6.26727489   0.00000000
-138.80376279   6.26718808   0.00000000
-138.70376279   6.26710089   0.00000000
-138.60376279   6.26701333   0.00000000
-138.50376279   6.26692538   0.00000000
-138.40376279   6.26683706   0.00000000
-138.30376279   6.26674836   0.00000000
-138.20376279   6.26665928   0.00000000
-138.10376279   6.26656981   0.00000000
-138.00376279   6.26647996   0.00000000
-137.90376279   6.26638972   0.00000000
-137.80376279   6.26629910   0.00000000
-137.70376279   6.26620809   0.00000000
-137.60376279   6.26611669   0.00000000
-137.50376279   6.26602490   0.00000000
-137.40376279   6.26593271   0.00000000
-137.30376279   6.26584014   0.00000000
-137.20376279   6.26574716   0.00000000
-137.10376279   6.26565379   0.00000000
-137.00376279   6.26556002   0.00000000
-136.90376279   6.26546586   0.00000000
-136.80376279   6.26537129   0.00000000
-136.70376279   6.26527632   0.00000000
-136.60376279   6.26518094   0.00000000
-136.50376279   6.26508516   0.00000000
-136.40376279   6.26498898   0.00000000
-136.30376279   6.26489238   0.00000000
-136.20376279   6.26479538   0.00000000
-136.10376279   6.26469796   0.00000000
-136.00376279   6.26460014   0.00000000
-135.90376279   6.26450189   0.00000000
-135.80376279   6.26440324   0.00000000
-135.70376279   6.26430417   0.00000000
-135.60376279   6.26420468   0.00000000
-135.50376279   6.26410477   0.00000000
-135.40376279   6.26400443   0.00000000
-135.30376279   6.26390368   0.00000000
-135.20376279   6.26380250   0.00000000
-135.10376279   6.26370090   0.00000000
-135.00376279   6.26359887   0.00000000
-134.90376279   6.26349641   0.00000000
-134.80376279   6.26339352   0.00000000
-134.70376279   6.26329021   0.00000000
-134.60376279   6.26318645   0.00000000
-134.50376279   6.26308227   0.00000000
-134.40376279   6.26297765   0.00000000
-134.30376279   6.26287259   0.00000000
-134.20376279   6.26276709   0.00000000
-134.10376279   6.26266115   0.00000000
-134.00376279   6.26255477   0.00000000
-133.90376279   6.26244795   0.00000000
-133.80376279   6.26234068   0.00000000
-133.70376279   6.26223296   0.00000000
-133.60376279   6.26212480   0.00000000
-133.50376279   6.26201619   0.00000000
-133.40376279   6.26190713   0.00000000
-133.30376279   6.26179761   0.00000000
-133.20376279   6.26168764   0.00000000
-133.10376279   6.26157722   0.00000000
-133.00376279   6.26146634   0.00000000
-132.90376279   6.26135500   0.00000000
-132.80376279   6.26124320   0.00000000
-132.70376279   6.26113094   0.00000000
-132.60376279   6.26101821   0.00000000
-132.50376279   6.26090502   0.00000000
-132.40376279   6.26079137   0.00000000
-132.30376279   6.26067724   0.00000000
-132.20376279   6.26056265   0.00000000
-132.10376279   6.26044758   0.00000000
-132.00376279   6.26033205   0.00000000
-131.90376279   6.26021604   0.00000000
-131.80376279   6.26009955   0.00000000
-131.70376279   6.25998258   0.00000000
-131.60376279   6.25986514   0.00000000
-131.50376279   6.25974722   0.00000000
-131.40376279   6.25962881   0.00000000
-131.30376279   6.25950992   0.00000000
-131.20376279   6.25939054   0.00000000
-131.10376279   6.25927068   0.00000000
-131.00376279   6.25915033   0.00000000
-130.90376279   6.25902949   0.00000000
-130.80376279   6.25890815   0.00000000
-130.70376279   6.25878633   0.00000000
-130.60376279   6.25866400   0.00000000
-130.50376279   6.25854119   0.00000000
-130.40376279   6.25841787   0.00000000
-130.30376279   6.25829405   0.00000000
-130.20376279   6.25816973   0.00000000
-130.10376279   6.25804491   0.00000000
-130.00376279   6.25791958   0.00000000
-129.90376279   6.25779375   0.00000000
-129.80376279   6.25766741   0.00000000
-129.70376279   6.25754056   0.00000000
-129.60376279   6.25741319   0.00000000
-129.50376279   6.25728532   0.00000000
-129.40376279   6.25715692   0.00000000
-129.30376279   6.25702802   0.00000000
-129.20376279   6.25689859   0.00000000
-129.10376279   6.25676864   0.00000000
-129.00376279   6.25663817   0.00000000
-128.90376279   6.25650718   0.00000000
-128.80376279   6.25637567   0.00000000
-128.70376279   6.25624362   0.00000000
-128.60376279   6.25611105   0.00000000
-128.50376279   6.25597795   0.00000000
-128.40376279   6.25584432   0.00000000
-128.30376279   6.25571015   0.00000000
-128.20376279   6.25557545   0.00000000
-128.10376279   6.25544021   0.00000000
-128.00376279   6.25530443   0.00000000
-127.90376279   6.25516811   0.00000000
-127.80376279   6.25503125   0.00000000
-127.70376279   6.25489385   0.00000000
-127.60376279   6.25475590   0.00000000
-127.50376279   6.25461740   0.00000000
-127.40376279   6.25447835   0.00000000
-127.30376279   6.25433876   0.00000000
-127.20376279   6.25419861   0.00000000
-127.10376279   6.25405790   0.00000000
-127.00376279   6.25391664   0.00000000
-126.90376279   6.25377483   0.00000000
-126.80376279   6.25363245   0.00000000
-126.70376279   6.25348951   0.00000000
-126.60376279   6.25334601   0.00000000
-126.50376279   6.25320194   0.00000000
-126.40376279   6.25305731   0.00000000
-126.30376279   6.25291211   0.00000000
-126.20376279   6.25276634   0.00000000
-126.10376279   6.25261999   0.00000000
-126.00376279   6.25247307   0.00000000
-125.90376279   6.25232558   0.00000000
-125.80376279   6.25217751   0.00000000
-125.70376279   6.25202886   0.00000000
-125.60376279   6.25187963   0.00000000
-125.50376279   6.25172982   0.00000000
-125.40376279   6.25157942   0.00000000
-125.30376279   6.25142843   0.00000000
-125.20376279   6.25127686   0.00000000
-125.10376279   6.25112470   0.00000000
-125.00376279   6.25097194   0.00000000
-124.90376279   6.25081860   0.00000000
-124.80376279   6.25066465   0.00000000
-124.70376279   6.25051011   0.00000000
-124.60376279   6.25035497   0.00000000
-124.50376279   6.25019923   0.00000000
-124.40376279   6.25004289   0.00000000
-124.30376279   6.24988594   0.00000000
-124.20376279   6.24972838   0.00000000
-124.10376279   6.24957022   0.00000000
-124.00376279   6.24941144   0.00000000
-123.90376279   6.24925206   0.00000000
-123.80376279   6.24909206   0.00000000
-123.70376279   6.24893144   0.00000000
-123.60376279   6.24877021   0.00000000
-123.50376279   6.24860835   0.00000000
-123.40376279   6.24844588   0.00000000
-123.30376279   6.24828278   0.00000000
-123.20376279   6.24811906   0.00000000
-123.10376279   6.24795471   0.00000000
-123.00376279   6.24778973   0.00000000
-122.90376279   6.24762412   0.00000000
-122.80376279   6.24745787   0.00000000
-122.70376279   6.24729099   0.00000000
-122.60376279   6.24712348   0.00000000
-122.50376279   6.24695533   0.00000000
-122.40376279   6.24678653   0.00000000
-122.30376279   6.24661710   0.00000000
-122.20376279   6.24644702   0.00000000
-122.10376279   6.24627629   0.00000000
-122.00376279   6.24610491   0.00000000
-121.90376279   6.24593289   0.00000000
-121.80376279   6.24576021   0.00000000
-121.70376279   6.24558688   0.00000000
-121.60376279   6.24541290   0.00000000
-121.50376279   6.24523825   0.00000000
-121.40376279   6.24506295   0.00000000
-121.30376279   6.24488698   0.00000000
-121.20376279   6.24471035   0.00000000
-121.10376279   6.24453306   0.00000000
-121.00376279   6.24435510   0.00000000
-120.90376279   6.24417647   0.00000000
-120.80376279   6.24399716   0.00000000
-120.70376279   6.24381719   0.00000000
-120.60376279   6.24363653   0.00000000
