#      z (A) rho (1e-6/A2) irho (1e-6/A2)
-150.68644760   6.22380879   0.00000000
-150.58644760   6.22379442   0.00000000
-150.48644760   6.22377997   0.00000000
-150.38644760   6.22376543   0.00000000
-150.28644760   6.22375081   0.00000000
-150.18644760   6.22373610   0.00000000
-150.08644760   6.22372130   0.00000000
-149.98644760   6.22370641   0.00000000
-149.88644760   6.22369143   0.00000000
-149.78644760   6.22367637   0.00000000
-149.68644760   6.22366121   0.00000000
-149.58644760   6.22364597   0.00000000
-149.48644760   6.22363063   0.00000000
-149.38644760   6.22361520   0.00000000
-149.28644760   6.22359968   0.00000000
-149.18644760   6.22358407   0.00000000
-149.08644760   6.22356837   0.00000000
-148.98644760   6.22355257   0.00000000
-148.88644760   6.22353668   0.00000000
-148.78644760   6.22352069   0.00000000
-148.68644760   6.22350461   0.00000000
-148.58644760   6.22348844   0.00000000
-148.48644760   6.22347217   0.00000000
-148.38644760   6.22345580   0.00000000
-148.28644760   6.22343934   0.00000000
-148.18644760   6.22342278   0.00000000
-148.08644760   6.22340612   0.00000000
-147.98644760   6.22338937   0.00000000
-147.88644760   6.22337251   0.00000000
-147.78644760   6.22335556   0.00000000
-147.68644760   6.22333851   0.00000000
-147.58644760   6.22332136   0.00000000
-147.48644760   6.22330410   0.00000000
-147.38644760   6.22328675   0.00000000
-147.28644760   6.22326929   0.00000000
-147.18644760   6.22325174   0.00000000
-147.08644760   6.22323407   0.00000000
-146.98644760   6.22321631   0.00000000
-146.88644760   6.22319844   0.00000000
-146.78644760   6.22318047   0.00000000
-146.68644760   6.22316239   0.00000000
-146.58644760   6.22314421   0.00000000
-146.48644760   6.22312592   0.00000000
-146.38644760   6.22310753   0.00000000
-146.28644760   6.22308902   0.00000000
-146.18644760   6.22307041   0.00000000
-146.08644760   6.22305170   0.00000000
-145.98644760   6.22303287   0.00000000
-145.88644760   6.22301393   0.00000000
-145.78644760   6.22299489   0.00000000
-145.68644760   6.22297573   0.00000000
-145.58644760   6.22295647   0.00000000
-145.48644760   6.22293709   0.00000000
-145.38644760   6.22291760   0.00000000
-145.28644760   6.22289799   0.00000000
-145.18644760   6.22287828   0.00000000
-145.08644760   6.22285845   0.00000000
-144.98644760   6.22283850   0.00000000
-144.88644760   6.22281844   0.00000000
-144.78644760   6.22279827   0.00000000
-144.68644760   6.22277798   0.00000000
-144.58644760   6.22275757   0.00000000
-144.48644760   6.22273704   0.00000000
-144.38644760   6.22271640   0.00000000
-144.28644760   6.22269564   0.00000000
-144.18644760   6.22267476   0.00000000
-144.08644760   6.22265376   0.00000000
-143.98644760   6.22263264   0.00000000
-143.88644760   6.22261140   0.00000000
-143.78644760   6.22259003   0.00000000
-143.68644760   6.22256855   0.00000000
-143.58644760   6.22254694   0.00000000
-143.48644760   6.22252521   0.00000000
-143.38644760   6.22250336   0.00000000
-143.28644760   6.22248138   0.00000000
-143.18644760   6.22245927   0.00000000
-143.08644760   6.22243704   0.00000000
-142.98644760   6.22241468   0.00000000
-142.88644760   6.22239220   0.00000000
-142.78644760   6.22236959   0.00000000
-142.68644760   6.22234685   0.00000000
-142.58644760   6.22232398   0.00000000
-142.48644760   6.22230098   0.00000000
-142.38644760   6.22227785   0.00000000
-142.28644760   6.22225459   0.00000000
-142.18644760   6.22223120   0.00000000
-142.08644760   6.22220768   0.00000000
-141.98644760   6.22218402   0.00000000
-141.88644760   6.22216023   0.00000000
-141.78644760   6.22213631   0.00000000
-141.68644760   6.22211225   0.00000000
-141.58644760   6.22208805   0.00000000
-141.48644760   6.22206372   0.00000000
-141.38644760   6.22203926   0.00000000
-141.28644760   6.22201465   0.00000000
-141.18644760   6.22198991   0.00000000
-141.08644760   6.22196503   0.00000000
-140.98644760   6.22194000   0.00000000
-140.88644760   6.22191484   0.00000000
-140.78644760   6.22188954   0.00000000
-140.68644760   6.22186410   0.00000000
-140.58644760   6.22183851   0.00000000
-140.48644760   6.22181278   0.00000000
-140.38644760   6.22178691   0.00000000
-140.28644760   6.22176089   0.00000000
-140.18644760   6.22173473   0.00000000
-140.08644760   6.22170842   0.00000000
-139.98644760   6.22168196   0.00000000
-139.88644760   6.22165536   0.00000000
-139.78644760   6.22162861   0.00000000
-139.68644760   6.22160171   0.00000000
-139.58644760   6.22157467   0.00000000
-139.48644760   6.22154747   0.00000000
-139.38644760   6.22152012   0.00000000
-139.28644760   6.22149262   0.00000000
-139.18644760   6.22146497   0.00000000
-139.08644760   6.22143716   0.00000000
-138.98644760   6.22140920   0.00000000
-138.88644760   6.22138109   0.00000000
-138.78644760   6.22135282   0.00000000
-138.68644760   6.22132440   0.00000000
-138.58644760   6.22129582   0.00000000
-138.48644760   6.22126708   0.00000000
-138.38644760   6.22123818   0.00000000
-138.28644760   6.22120912   0.00000000
-138.18644760   6.22117991   0.00000000
-138.08644760   6.22115053   0.00000000
-137.98644760   6.22112099   0.00000000
-137.88644760   6.22109130   0.00000000
-137.78644760   6.22106143   0.00000000
-137.68644760   6.22103141   0.00000000
-137.58644760   6.22100122   0.00000000
-137.48644760   6.22097086   0.00000000
-137.38644760   6.22094034   0.00000000
-137.28644760   6.22090965   0.00000000
-137.18644760   6.22087880   0.00000000
-137.08644760   6.22084778   0.00000000
-136.98644760   6.22081658   0.00000000
-136.88644760   6.22078522   0.00000000
-136.78644760   6.22075369   0.00000000
-136.68644760   6.22072199   0.00000000
-136.58644760   6.22069011   0.00000000
-136.48644760   6.22065806   0.00000000
-136.38644760   6.22062584   0.00000000
-136.28644760   6.22059344   0.00000000
-136.18644760   6.22056087   0.00000000
-136.08644760   6.22052812   0.00000000
-135.98644760   6.22049519   0.00000000
-135.88644760   6.22046208   0.00000000
-135.78644760   6.22042880   0.00000000
-135.68644760   6.22039534   0.00000000
-135.58644760   6.22036169   0.00000000
-135.48644760   6.22032787   0.00000000
-135.38644760   6.22029386   0.00000000
-135.28644760   6.22025967   0.00000000
-135.18644760   6.22022530   0.00000000
-135.08644760   6.22019074   0.00000000
-134.98644760   6.22015600   0.00000000
-134.88644760   6.22012107   0.00000000
-134.78644760   6.22008595   0.00000000
-134.68644760   6.22005064   0.00000000
-134.58644760   6.22001515   0.00000000
-134.48644760   6.21997946   0.00000000
-134.38644760   6.21994359   0.00000000
-134.28644760   6.21990752   0.00000000
-134.18644760   6.21987126   0.00000000
-134.08644760   6.21983481   0.00000000
-133.98644760   6.21979816   0.00000000
-133.88644760   6.21976132   0.00000000
-133.78644760   6.21972428   0.00000000
-133.68644760   6.21968705   0.00000000
-133.58644760   6.21964961   0.00000000
-133.48644760   6.21961198   0.00000000
-133.38644760   6.21957415   0.00000000
-133.28644760   6.21953612   0.00000000
-133.18644760   6.21949788   0.00000000
-133.08644760   6.21945945   0.00000000
-132.98644760   6.21942081   0.00000000
-132.88644760   6.21938197   0.00000000
-132.78644760   6.21934292   0.00000000
-132.68644760   6.21930366   0.00000000
-132.58644760   6.21926420   0.00000000
-132.48644760   6.21922453   0.00000000
-132.38644760   6.21918465   0.00000000
-132.28644760   6.21914457   0.00000000
-132.18644760   6.21910427   0.00000000
-132.08644760   6.21906376   0.00000000
-131.98644760   6.21902303   0.00000000
-131.88644760   6.21898210   0.00000000
-131.78644760   6.21894095   0.00000000
-131.68644760   6.21889958   0.00000000
-131.58644760   6.21885800   0.00000000
-131.48644760   6.21881620   0.00000000
-131.38644760   6.21877418   0.00000000
-131.28644760   6.21873194   0.00000000
-131.18644760   6.21868948   0.00000000
-131.08644760   6.21864680   0.00000000
-130.98644760   6.21860390   0.00000000
-130.88644760   6.21856077   0.00000000
-130.78644760   6.21851742   0.00000000
-130.68644760   6.21847385   0.00000000
-130.58644760   6.21843004   0.00000000
-130.48644760   6.21838601   0.00000000
-130.38644760   6.21834176   0.00000000
-130.28644760   6.21829727   0.00000000
-130.18644760   6.21825255   0.00000000
-130.08644760   6.21820760   0.00000000
-129.98644760   6.21816242   0.00000000
-129.88644760   6.21811701   0.00000000
-129.78644760   6.21807136   0.00000000
-129.68644760   6.21802548   0.00000000
-129.58644760   6.21797936   0.00000000
-129.48644760   6.21793300   0.00000000
-129.38644760   6.21788640   0.00000000
-129.28644760   6.21783957   0.00000000
-129.18644760   6.21779249   0.00000000
-129.08644760   6.21774517   0.00000000
-128.98644760   6.21769761   0.00000000
-128.88644760   6.21764981   0.00000000
-128.78644760   6.21760176   0.00000000
-128.68644760   6.21755346   0.00000000
-128.58644760   6.21750492   0.00000000
-128.48644760   6.21745613   0.00000000
-128.38644760   6.21740709   0.00000000
-128.28644760   6.21735780   0.00000000
-128.18644760   6.21730826   0.00000000
-128.08644760   6.21725846   0.00000000
-127.98644760   6.21720842   0.00000000
-127.88644760   6.21715811   0.00000000
-127.78644760   6.21710756   0.00000000
-127.68644760   6.21705674   0.00000000
-127.58644760   6.21700567   0.00000000
-127.48644760   6.21695434   0.00000000
-127.38644760   6.21690275   0.00000000
-127.28644760   6.21685090   0.00000000
-127.18644760   6.21679879   0.00000000
-127.08644760   6.21674641   0.00000000
-126.98644760   6.21669377   0.00000000
-126.88644760   6.21664086   0.00000000
-126.78644760   6.21658768   0.00000000
-126.68644760   6.21653424   0.00000000
-126.58644760   6.21648053   0.00000000
-126.48644760   6.21642655   0.00000000
-126.38644760   6.21637230   0.00000000
-126.28644760   6.21631777   0.00000000
-126.18644760   6.21626297   0.00000000
-126.08644760   6.21620790   0.00000000
-125.98644760   6.21615255   0.00000000
-125.88644760   6.21609692   0.00000000
-125.78644760   6.21604102   0.00000000
-125.68644760   6.21598483   0.00000000
-125.58644760   6.21592837   0.00000000
-125.48644760   6.21587162   0.00000000
-125.38644760   6.21581459   0.00000000
-125.28644760   6.21575728   0.00000000
-125.18644760   6.21569968   0.00000000
-125.08644760   6.21564179   0.00000000
-124.98644760   6.21558362   0.00000000
-124.88644760   6.21552516   0.00000000
-124.78644760   6.21546641   0.00000000
-124.68644760   6.21540736   0.00000000
-124.58644760   6.21534803   0.00000000
-124.48644760   6.21528840   0.00000000
-124.38644760   6.21522847   0.00000000
-124.28644760   6.21516825   0.00000000
-124.18644760   6.21510773   0.00000000
-124.08644760   6.21504692   0.00000000
-123.98644760   6.21498580   0.00000000
-123.88644760   6.21492438   0.00000000
-123.78644760   6.21486266   0.00000000
-123.68644760   6.21480064   0.00000000
-123.58644760   6.21473831   0.00000000
-123.48644760   6.21467568   0.00000000
-123.38644760   6.21461273   0.00000000
-123.28644760   6.21454948   0.00000000
-123.18644760   6.21448592   0.00000000
-123.08644760   6.21442205   0.00000000
-122.98644760   6.21435787   0.00000000
-122.88644760   6.21429337   0.00000000
-122.78644760   6.21422856   0.00000000
-122.68644760   6.21416343   0.00000000
-122.58644760   6.21409798   0.00000000
-122.48644760   6.21403222   0.00000000
-122.38644760   6.21396613   0.00000000
-122.28644760   6.21389973   0.00000000
-122.18644760   6.21383300   0.00000000
-122.08644760   6.21376594   0.00000000
-121.98644760   6.21369857   0.00000000
-121.88644760   6.21363086   0.00000000
-121.78644760   6.21356283   0.00000000
-121.68644760   6.21349447   0.00000000
-121.58644760   6.21342577   0.00000000
-121.48644760   6.21335675   0.00000000
-121.38644760   6.21328739   0.00000000
-121.28644760   6.21321770   0.00000000
-121.18644760   6.21314767   0.00000000
-121.08644760   6.21307731   0.00000000
-120.98644760   6.21300660   0.00000000
-120.88644760   6.21293556   0.00000000
-120.78644760   6.21286418   0.00000000
-120.68644760   6.21279245   0.00000000
-120.58644760   6.21272038   0.00000000
-120.48644760   6.21264796   0.00000000
-120.38644760   6.21257520   0.00000000
-120.28644760   6.21250209   0.00000000
-120.18644760   6.21242863   0.00000000
-120.08644760   6.21235482   0.00000000
-119.98644760   6.21228065   0.00000000
-119.88644760   6.21220614   0.00000000
-119.78644760   6.21213126   0.00000000
-119.68644760   6.21205604   0.00000000
-119.58644760   6.21198045   0.00000000
-119.48644760   6.21190451   0.00000000
-119.38644760   6.21182820   0.00000000
-119.28644760   6.21175153   0.00000000
-119.18644760   6.21167450   0.00000000
-119.08644760   6.21159711   0.00000000
-118.98644760   6.21151934   0.00000000
-118.88644760   6.21144122   0.00000000
-118.78644760   6.21136272   0.00000000
-118.68644760   6.21128385   0.00000000
-118.58644760   6.21120461   0.00000000
-118.48644760   6.21112499   0.00000000
-118.38644760   6.21104500   0.00000000
-118.28644760   6.21096464   0.00000000
-118.18644760   6.21088390   0.00000000
-118.08644760   6.21080277   0.00000000
-117.98644760   6.21072127   0.00000000
-117.88644760   6.21063939   0.00000000
-117.78644760   6.21055712   0.00000000
-117.68644760   6.21047447   0.00000000
-117.58644760   6.21039143   0.00000000
-117.48644760   6.21030800   0.00000000
-117.38644760   6.21022418   0.00000000
-117.28644760   6.21013998   0.00000000
-117.18644760   6.21005537   0.00000000
-117.08644760   6.20997038   0.00000000
-116.98644760   6.20988499   0.00000000
-116.88644760   6.20979921   0.00000000
-116.78644760   6.20971302   0.00000000
-116.68644760   6.20962644   0.00000000
-116.58644760   6.20953945   0.00000000
-116.48644760   6.20945206   0.00000000
-116.38644760   6.20936427   0.00000000
-116.28644760   6.20927607   0.00000000
-116.18644760   6.20918746   0.00000000
-116.08644760   6.20909845   0.00000000
-115.98644760   6.20900902   0.00000000
-115.88644760   6.20891918   0.00000000
-115.78644760   6.20882893   0.00000000
-115.68644760   6.20873827   0.00000000
-115.58644760   6.20864718   0.00000000
-115.48644760   6.20855568   0.00000000
-115.38644760   6.20846376   0.00000000
-115.28644760   6.20837142   0.00000000
-115.18644760   6.20827865   0.00000000
-115.08644760   6.20818546   0.00000000
-114.98644760   6.20809184   0.00000000
-114.88644760   6.20799780   0.00000000
-114.78644760   6.20790333   0.00000000
-114.68644760   6.20780842   0.00000000
-114.58644760   6.20771308   0.00000000
-114.48644760   6.20761731   0.00000000
-114.38644760   6.20752111   0.00000000
-114.28644760   6.20742447   0.00000000
-114.18644760   6.20732738   0.00000000
-114.08644760   6.20722986   0.00000000
-113.98644760   6.20713190   0.00000000
-113.88644760   6.20703349   0.00000000
-113.78644760   6.20693464   0.00000000
-113.68644760   6.20683533   0.00000000
-113.58644760   6.20673559   0.00000000
-113.48644760   6.20663539   0.00000000
-113.38644760   6.20653474   0.00000000
-113.28644760   6.20643363   0.00000000
-113.18644760   6.20633208   0.00000000
-113.08644760   6.20623006   0.00000000
-112.98644760   6.20612759   0.00000000
-112.88644760   6.20602465   0.00000000
-112.78644760   6.20592126   0.00000000
-112.68644760   6.20581740   0.00000000
-112.58644760   6.20571308   0.00000000
-112.48644760   6.20560829   0.00000000
-112.38644760   6.20550303   0.00000000
-112.28644760   6.20539730   0.00000000
-112.18644760   6.20529110   0.00000000
-112.08644760   6.20518443   0.00000000
-111.98644760   6.20507728   0.00000000
-111.88644760   6.20496965   0.00000000
-111.78644760   6.20486155   0.00000000
-111.68644760   6.20475297   0.00000000
-111.58644760   6.20464390   0.00000000
-111.48644760   6.20453435   0.00000000
-111.38644760   6.20442432   0.00000000
-111.28644760   6.20431380   0.00000000
-111.18644760   6.20420279   0.00000000
-111.08644760   6.20409129   0.00000000
-110.98644760   6.20397930   0.00000000
-110.88644760   6.20386682   0.00000000
-110.78644760   6.20375384   0.00000000
-110.68644760   6.20364036   0.00000000
-110.58644760   6.20352638   0.00000000
-110.48644760   6.20341190   0.00000000
-110.38644760   6.20329692   0.00000000
-110.28644760   6.20318144   0.00000000
-110.18644760   6.20306545   0.00000000
-110.08644760   6.20294895   0.00000000
-109.98644760   6.20283195   0.00000000
-109.88644760   6.20271443   0.00000000
-109.78644760   6.20259640   0.00000000
-109.68644760   6.20247785   0.00000000
-109.58644760   6.20235879   0.00000000
-109.48644760   6.20223921   0.00000000
-109.38644760   6.20211911   0.00000000
-109.28644760   6.20199849   0.00000000
-109.18644760   6.20187734   0.00000000
-109.08644760   6.20175567   0.00000000
-108.98644760   6.20163347   0.00000000
-108.88644760   6.20151074   0.00000000
-108.78644760   6.20138748   0.00000000
-108.68644760   6.20126369   0.00000000
-108.58644760   6.20113937   0.00000000
-108.48644760   6.20101450   0.00000000
-108.38644760   6.20088910   0.00000000
-108.28644760   6.20076316   0.00000000
-108.18644760   6.20063668   0.00000000
-108.08644760   6.20050966   0.00000000
-107.98644760   6.20038209   0.00000000
-107.88644760   6.20025397   0.00000000
-107.78644760   6.20012530   0.00000000
-107.68644760   6.19999608   0.00000000
-107.58644760   6.19986631   0.00000000
-107.48644760   6.19973599   0.00000000
-107.38644760   6.19960511   0.00000000
-107.28644760   6.19947367   0.00000000
-107.18644760   6.19934167   0.00000000
-107.08644760   6.19920911   0.00000000
-106.98644760   6.19907598   0.00000000
-106.88644760   6.19894229   0.00000000
-106.78644760   6.19880803   0.00000000
-106.68644760   6.19867320   0.00000000
-106.58644760   6.19853780   0.00000000
-106.48644760   6.19840183   0.00000000
-106.38644760   6.19826528   0.00000000
-106.28644760   6.19812816   0.00000000
-106.18644760   6.19799045   0.00000000
-106.08644760   6.19785217   0.00000000
-105.98644760   6.19771330   0.00000000
-105.88644760   6.19757385   0.00000000
-105.78644760   6.19743381   0.00000000
-105.68644760   6.19729318   0.00000000
-105.58644760   6.19715197   0.00000000
-105.48644760   6.19701016   0.00000000
-105.38644760   6.19686775   0.00000000
-105.28644760   6.19672475   0.00000000
-105.18644760   6.19658116   0.00000000
-105.08644760   6.19643696   0.00000000
-104.98644760   6.19629216   0.00000000
-104.88644760   6.19614675   0.00000000
-104.78644760   6.19600075   0.00000000
-104.68644760   6.19585413   0.00000000
-104.58644760   6.19570690   0.00000000
-104.48644760   6.19555906   0.00000000
-104.38644760   6.19541061   0.00000000
-104.28644760   6.19526155   0.00000000
-104.18644760   6.19511186   0.00000000
-104.08644760   6.19496156   0.00000000
-103.98644760   6.19481063   0.00000000
-103.88644760   6.19465908   0.00000000
-103.78644760   6.19450691   0.00000000
-103.68644760   6.19435411   0.00000000
-103.58644760   6.19420068   0.00000000
-103.48644760   6.19404662   0.00000000
-103.38644760   6.19389192   0.00000000
-103.28644760   6.19373659   0.00000000
-103.18644760   6.19358062   0.00000000
-103.08644760   6.19342402   0.00000000
-102.98644760   6.19326677   0.00000000
-102.88644760   6.19310888   0.00000000
-102.78644760   6.19295034   0.00000000
-102.68644760   6.19279116   0.00000000
-102.58644760   6.19263132   0.00000000
-102.48644760   6.19247084   0.00000000
-102.38644760   6.19230970   0.00000000
-102.28644760   6.19214791   0.00000000
-102.18644760   6.19198546   0.00000000
-102.08644760   6.19182235   0.00000000
-101.98644760   6.19165858   0.00000000
-101.88644760   6.19149415   0.00000000
-101.78644760   6.19132905   0.00000000
-101.68644760   6.19116328   0.00000000
-101.58644760   6.19099685   0.00000000
-101.48644760   6.19082974   0.00000000
-101.38644760   6.19066196   0.00000000
-101.28644760   6.19049350   0.00000000
-101.18644760   6.19032437   0.00000000
-101.08644760   6.19015455   0.00000000
-100.98644760   6.18998406   0.00000000
