#      z (A) rho (1e-6/A2) irho (1e-6/A2)
-167.31071755   6.22371047   0.00000000
-167.21071755   6.22369696   0.00000000
-167.11071755   6.22368337   0.00000000
-167.01071755   6.22366971   0.00000000
-166.91071755   6.22365598   0.00000000
-166.81071755   6.22364217   0.00000000
-166.71071755   6.22362829   0.00000000
-166.61071755   6.22361433   0.00000000
-166.51071755   6.22360030   0.00000000
-166.41071755   6.22358619   0.00000000
-166.31071755   6.22357201   0.00000000
-166.21071755   6.22355775   0.00000000
-166.11071755   6.22354342   0.00000000
-166.01071755   6.22352900   0.00000000
-165.91071755   6.22351452   0.00000000
-165.81071755   6.22349995   0.00000000
-165.71071755   6.22348530   0.00000000
-165.61071755   6.22347058   0.00000000
-165.51071755   6.22345578   0.00000000
-165.41071755   6.22344090   0.00000000
-165.31071755   6.22342594   0.00000000
-165.21071755   6.22341090   0.00000000
-165.11071755   6.22339578   0.00000000
-165.01071755   6.22338058   0.00000000
-164.91071755   6.22336530   0.00000000
-164.81071755   6.22334994   0.00000000
-164.71071755   6.22333450   0.00000000
-164.61071755   6.22331897   0.00000000
-164.51071755   6.22330336   0.00000000
-164.41071755   6.22328767   0.00000000
-164.31071755   6.22327190   0.00000000
-164.21071755   6.22325604   0.00000000
-164.11071755   6.22324010   0.00000000
-164.01071755   6.22322408   0.00000000
-163.91071755   6.22320796   0.00000000
-163.81071755   6.22319177   0.00000000
-163.71071755   6.22317549   0.00000000
-163.61071755   6.22315912   0.00000000
-163.51071755   6.22314267   0.00000000
-163.41071755   6.22312613   0.00000000
-163.31071755   6.22310950   0.00000000
-163.21071755   6.22309279   0.00000000
-163.11071755   6.22307598   0.00000000
-163.01071755   6.22305909   0.00000000
-162.91071755   6.22304211   0.00000000
-162.81071755   6.22302504   0.00000000
-162.71071755   6.22300789   0.00000000
-162.61071755   6.22299064   0.00000000
-162.51071755   6.22297330   0.00000000
-162.41071755   6.22295587   0.00000000
-162.31071755   6.22293835   0.00000000
-162.21071755   6.22292074   0.00000000
-162.11071755   6.22290303   0.00000000
-162.01071755   6.22288523   0.00000000
-161.91071755   6.22286734   0.00000000
-161.81071755   6.22284936   0.00000000
-161.71071755   6.22283128   0.00000000
-161.61071755   6.22281311   0.00000000
-161.51071755   6.22279484   0.00000000
-161.41071755   6.22277648   0.00000000
-161.31071755   6.22275803   0.00000000
-161.21071755   6.22273947   0.00000000
-161.11071755   6.22272082   0.00000000
-161.01071755   6.22270208   0.00000000
-160.91071755   6.22268324   0.00000000
-160.81071755   6.22266429   0.00000000
-160.71071755   6.22264525   0.00000000
-160.61071755   6.22262612   0.00000000
-160.51071755   6.22260688   0.00000000
-160.41071755   6.22258754   0.00000000
-160.31071755   6.22256811   0.00000000
-160.21071755   6.22254857   0.00000000
-160.11071755   6.22252893   0.00000000
-160.01071755   6.22250919   0.00000000
-159.91071755   6.22248935   0.00000000
-159.81071755   6.22246941   0.00000000
-159.71071755   6.22244936   0.00000000
-159.61071755   6.22242921   0.00000000
-159.51071755   6.22240896   0.00000000
-159.41071755   6.22238860   0.00000000
-159.31071755   6.22236814   0.00000000
-159.21071755   6.22234758   0.00000000
-159.11071755   6.22232690   0.00000000
-159.01071755   6.22230612   0.00000000
-158.91071755   6.22228524   0.00000000
-158.81071755   6.22226425   0.00000000
-158.71071755   6.22224315   0.00000000
-158.61071755   6.22222194   0.00000000
-158.51071755   6.22220063   0.00000000
-158.41071755   6.22217920   0.00000000
-158.31071755   6.22215767   0.00000000
-158.21071755   6.22213602   0.00000000
-158.11071755   6.22211427   0.00000000
-158.01071755   6.22209241   0.00000000
-157.91071755   6.22207043   0.00000000
-157.81071755   6.22204834   0.00000000
-157.71071755   6.22202614   0.00000000
-157.61071755   6.22200383   0.00000000
-157.51071755   6.22198140   0.00000000
-157.41071755   6.22195886   0.00000000
-157.31071755   6.22193620   0.00000000
-157.21071755   6.22191343   0.00000000
-157.11071755   6.22189055   0.00000000
-157.01071755   6.22186755   0.00000000
-156.91071755   6.22184443   0.00000000
-156.81071755   6.22182120   0.00000000
-156.71071755   6.22179784   0.00000000
-156.61071755   6.22177437   0.00000000
-156.51071755   6.22175079   0.00000000
-156.41071755   6.22172708   0.00000000
-156.31071755   6.22170325   0.00000000
-156.21071755   6.22167931   0.00000000
-156.11071755   6.22165524   0.00000000
-156.01071755   6.22163105   0.00000000
-155.91071755   6.22160674   0.00000000
-155.81071755   6.22158231   0.00000000
-155.71071755   6.22155775   0.00000000
-155.61071755   6.22153307   0.00000000
-155.51071755   6.22150827   0.00000000
-155.41071755   6.22148335   0.00000000
-155.31071755   6.22145829   0.00000000
-155.21071755   6.22143312   0.00000000
-155.11071755   6.22140781   0.00000000
-155.01071755   6.22138239   0.00000000
-154.91071755   6.22135683   0.00000000
-154.81071755   6.22133115   0.00000000
-154.71071755   6.22130533   0.00000000
-154.61071755   6.22127939   0.00000000
-154.51071755   6.22125332   0.00000000
-154.41071755   6.22122712   0.00000000
-154.31071755   6.22120079   0.00000000
-154.21071755   6.22117433   0.00000000
-154.11071755   6.22114774   0.00000000
-154.01071755   6.22112102   0.00000000
-153.91071755   6.22109416   0.00000000
-153.81071755   6.22106717   0.00000000
-153.71071755   6.22104004   0.00000000
-153.61071755   6.22101278   0.00000000
-153.51071755   6.22098539   0.00000000
-153.41071755   6.22095786   0.00000000
-153.31071755   6.22093020   0.00000000
-153.21071755   6.22090239   0.00000000
-153.11071755   6.22087445   0.00000000
-153.01071755   6.22084638   0.00000000
-152.91071755   6.22081816   0.00000000
-152.81071755   6.22078981   0.00000000
-152.71071755   6.22076131   0.00000000
-152.61071755   6.22073268   0.00000000
-152.51071755   6.22070390   0.00000000
-152.41071755   6.22067499   0.00000000
-152.31071755   6.22064593   0.00000000
-152.21071755   6.22061673   0.00000000
-152.11071755   6.22058738   0.00000000
-152.01071755   6.22055789   0.00000000
-151.91071755   6.22052826   0.00000000
-151.81071755   6.22049848   0.00000000
-151.71071755   6.22046856   0.00000000
-151.61071755   6.22043849   0.00000000
-151.51071755   6.22040827   0.00000000
-151.41071755   6.22037790   0.00000000
-151.31071755   6.22034739   0.00000000
-151.21071755   6.22031673   0.00000000
-151.11071755   6.22028592   0.00000000
-151.01071755   6.22025496   0.00000000
-150.91071755   6.22022385   0.00000000
-150.81071755   6.22019258   0.00000000
-150.71071755   6.22016117   0.00000000
-150.61071755   6.22012960   0.00000000
-150.51071755   6.22009788   0.00000000
-150.41071755   6.22006600   0.00000000
-150.31071755   6.22003397   0.00000000
-150.21071755   6.22000179   0.00000000
-150.11071755   6.21996945   0.00000000
-150.01071755   6.21993695   0.00000000
-149.91071755   6.21990430   0.00000000
-149.81071755   6.21987149   0.00000000
-149.71071755   6.21983852   0.00000000
-149.61071755   6.21980539   0.00000000
-149.51071755   6.21977210   0.00000000
-149.41071755   6.21973865   0.00000000
-149.31071755   6.21970504   0.00000000
-149.21071755   6.21967127   0.00000000
-149.11071755   6.21963733   0.00000000
-149.01071755   6.21960323   0.00000000
-148.91071755   6.21956897   0.00000000
-148.81071755   6.21953455   0.00000000
-148.71071755   6.21949996   0.00000000
-148.61071755   6.21946520   0.00000000
-148.51071755   6.21943028   0.00000000
-148.41071755   6.21939519   0.00000000
-148.31071755   6.21935993   0.00000000
-148.21071755   6.21932450   0.00000000
-148.11071755   6.21928891   0.00000000
-148.01071755   6.21925314   0.00000000
-147.91071755   6.21921720   0.00000000
-147.81071755   6.21918110   0.00000000
-147.71071755   6.21914482   0.00000000
-147.61071755   6.21910836   0.00000000
-147.51071755   6.21907174   0.00000000
-147.41071755   6.21903494   0.00000000
-147.31071755   6.21899796   0.00000000
-147.21071755   6.21896081   0.00000000
-147.11071755   6.21892349   0.00000000
-147.01071755   6.21888598   0.00000000
-146.91071755   6.21884830   0.00000000
-146.81071755   6.21881044   0.00000000
-146.71071755   6.21877240   0.00000000
-146.61071755   6.21873418   0.00000000
-146.51071755   6.21869579   0.00000000
-146.41071755   6.21865720   0.00000000
-146.31071755   6.21861844   0.00000000
-146.21071755   6.21857950   0.00000000
-146.11071755   6.21854037   0.00000000
-146.01071755   6.21850106   0.00000000
-145.91071755   6.21846156   0.00000000
-145.81071755   6.21842187   0.00000000
-145.71071755   6.21838200   0.00000000
-145.61071755   6.21834195   0.00000000
-145.51071755   6.21830170   0.00000000
-145.41071755   6.21826127   0.00000000
-145.31071755   6.21822064   0.00000000
-145.21071755   6.21817983   0.00000000
-145.11071755   6.21813882   0.00000000
-145.01071755   6.21809763   0.00000000
-144.91071755   6.21805624   0.00000000
-144.81071755   6.21801466   0.00000000
-144.71071755   6.21797288   0.00000000
-144.61071755   6.21793091   0.00000000
-144.51071755   6.21788874   0.00000000
-144.41071755   6.21784638   0.00000000
-144.31071755   6.21780382   0.00000000
-144.21071755   6.21776106   0.00000000
-144.11071755   6.21771810   0.00000000
-144.01071755   6.21767495   0.00000000
-143.91071755   6.21763159   0.00000000
-143.81071755   6.21758803   0.00000000
-143.71071755   6.21754427   0.00000000
-143.61071755   6.21750031   0.00000000
-143.51071755   6.21745615   0.00000000
-143.41071755   6.21741178   0.00000000
-143.31071755   6.21736720   0.00000000
-143.21071755   6.21732242   0.00000000
-143.11071755   6.21727743   0.00000000
-143.01071755   6.21723224   0.00000000
-142.91071755   6.21718683   0.00000000
-142.81071755   6.21714122   0.00000000
-142.71071755   6.21709540   0.00000000
-142.61071755   6.21704937   0.00000000
-142.51071755   6.21700312   0.00000000
-142.41071755   6.21695666   0.00000000
-142.31071755   6.21690999   0.00000000
-142.21071755   6.21686311   0.00000000
-142.11071755   6.21681601   0.00000000
-142.01071755   6.21676870   0.00000000
-141.91071755   6.21672116   0.00000000
-141.81071755   6.21667342   0.00000000
-141.71071755   6.21662545   0.00000000
-141.61071755   6.21657726   0.00000000
-141.51071755   6.21652886   0.00000000
-141.41071755   6.21648023   0.00000000
-141.31071755   6.21643138   0.00000000
-141.21071755   6.21638231   0.00000000
-141.11071755   6.21633302   0.00000000
-141.01071755   6.21628350   0.00000000
-140.91071755   6.21623376   0.00000000
-140.81071755   6.21618379   0.00000000
-140.71071755   6.21613359   0.00000000
-140.61071755   6.21608317   0.00000000
-140.51071755   6.21603252   0.00000000
-140.41071755   6.21598164   0.00000000
-140.31071755   6.21593053   0.00000000
-140.21071755   6.21587918   0.00000000
-140.11071755   6.21582761   0.00000000
-140.01071755   6.21577580   0.00000000
-139.91071755   6.21572376   0.00000000
-139.81071755   6.21567149   0.00000000
-139.71071755   6.21561897   0.00000000
-139.61071755   6.21556623   0.00000000
-139.51071755   6.21551324   0.00000000
-139.41071755   6.21546002   0.00000000
-139.31071755   6.21540656   0.00000000
-139.21071755   6.21535286   0.00000000
-139.11071755   6.21529891   0.00000000
-139.01071755   6.21524473   0.00000000
-138.91071755   6.21519030   0.00000000
-138.81071755   6.21513563   0.00000000
-138.71071755   6.21508071   0.00000000
-138.61071755   6.21502555   0.00000000
-138.51071755   6.21497015   0.00000000
-138.41071755   6.21491449   0.00000000
-138.31071755   6.21485859   0.00000000
-138.21071755   6.21480244   0.00000000
-138.11071755   6.21474603   0.00000000
-138.01071755   6.21468938   0.00000000
-137.91071755   6.21463248   0.00000000
-137.81071755   6.21457532   0.00000000
-137.71071755   6.21451791   0.00000000
-137.61071755   6.21446024   0.00000000
-137.51071755   6.21440232   0.00000000
-137.41071755   6.21434414   0.00000000
-137.31071755   6.21428570   0.00000000
-137.21071755   6.21422701   0.00000000
-137.11071755   6.21416805   0.00000000
-137.01071755   6.21410884   0.00000000
-136.91071755   6.21404936   0.00000000
-136.81071755   6.21398962   0.00000000
-136.71071755   6.21392962   0.00000000
-136.61071755   6.21386935   0.00000000
-136.51071755   6.21380882   0.00000000
-136.41071755   6.21374802   0.00000000
-136.31071755   6.21368696   0.00000000
-136.21071755   6.21362563   0.00000000
-136.11071755   6.21356402   0.00000000
-136.01071755   6.21350215   0.00000000
-135.91071755   6.21344001   0.00000000
-135.81071755   6.21337759   0.00000000
-135.71071755   6.21331490   0.00000000
-135.61071755   6.21325194   0.00000000
-135.51071755   6.21318870   0.00000000
-135.41071755   6.21312519   0.00000000
-135.31071755   6.21306139   0.00000000
-135.21071755   6.21299732   0.00000000
-135.11071755   6.21293298   0.00000000
-135.01071755   6.21286835   0.00000000
-134.91071755   6.21280344   0.00000000
-134.81071755   6.21273824   0.00000000
-134.71071755   6.21267277   0.00000000
-134.61071755   6.21260701   0.00000000
-134.51071755   6.21254096   0.00000000
-134.41071755   6.21247463   0.00000000
-134.31071755   6.21240801   0.00000000
-134.21071755   6.21234111   0.00000000
-134.11071755   6.21227391   0.00000000
-134.01071755   6.21220642   0.00000000
-133.91071755   6.21213865   0.00000000
-133.81071755   6.21207058   0.00000000
-133.71071755   6.21200221   0.00000000
-133.61071755   6.21193355   0.00000000
-133.51071755   6.21186460   0.00000000
-133.41071755   6.21179535   0.00000000
-133.31071755   6.21172580   0.00000000
-133.21071755   6.21165596   0.00000000
-133.11071755   6.21158581   0.00000000
-133.01071755   6.21151536   0.00000000
-132.91071755   6.21144461   0.00000000
-132.81071755   6.21137356   0.00000000
-132.71071755   6.21130220   0.00000000
-132.61071755   6.21123054   0.00000000
-132.51071755   6.21115857   0.00000000
-132.41071755   6.21108630   0.00000000
-132.31071755   6.21101372   0.00000000
-132.21071755   6.21094082   0.00000000
-132.11071755   6.21086762   0.00000000
-132.01071755   6.21079411   0.00000000
-131.91071755   6.21072028   0.00000000
-131.81071755   6.21064614   0.00000000
-131.71071755   6.21057168   0.00000000
-131.61071755   6.21049691   0.00000000
-131.51071755   6.21042182   0.00000000
-131.41071755   6.21034641   0.00000000
-131.31071755   6.21027069   0.00000000
-131.21071755   6.21019464   0.00000000
-131.11071755   6.21011827   0.00000000
-131.01071755   6.21004158   0.00000000
-130.91071755   6.20996456   0.00000000
-130.81071755   6.20988722   0.00000000
-130.71071755   6.20980956   0.00000000
-130.61071755   6.20973157   0.00000000
-130.51071755   6.20965325   0.00000000
-130.41071755   6.20957459   0.00000000
-130.31071755   6.20949561   0.00000000
-130.21071755   6.20941630   0.00000000
-130.11071755   6.20933666   0.00000000
-130.01071755   6.20925668   0.00000000
-129.91071755   6.20917636   0.00000000
-129.81071755   6.20909571   0.00000000
-129.71071755   6.20901473   0.00000000
-129.61071755   6.20893340   0.00000000
-129.51071755   6.20885174   0.00000000
-129.41071755   6.20876973   0.00000000
-129.31071755   6.20868738   0.00000000
-129.21071755   6.20860469   0.00000000
-129.11071755   6.20852166   0.00000000
-129.01071755   6.20843828   0.00000000
-128.91071755   6.20835455   0.00000000
-128.81071755   6.20827047   0.00000000
-128.71071755   6.20818605   0.00000000
-128.61071755   6.20810127   0.00000000
-128.51071755   6.20801615   0.00000000
-128.41071755   6.20793067   0.00000000
-128.31071755   6.20784484   0.00000000
-128.21071755   6.20775865   0.00000000
-128.11071755   6.20767211   0.00000000
-128.01071755   6.20758521   0.00000000
-127.91071755   6.20749796   0.00000000
-127.81071755   6.20741034   0.00000000
-127.71071755   6.20732236   0.00000000
-127.61071755   6.20723402   0.00000000
-127.51071755   6.20714532   0.00000000
-127.41071755   6.20705625   0.00000000
-127.31071755   6.20696682   0.00000000
-127.21071755   6.20687702   0.00000000
-127.11071755   6.20678685   0.00000000
-127.01071755   6.20669631   0.00000000
-126.91071755   6.20660540   0.00000000
-126.81071755   6.20651412   0.00000000
-126.71071755   6.20642247   0.00000000
-126.61071755   6.20633044   0.00000000
-126.51071755   6.20623804   0.00000000
-126.41071755   6.20614526   0.00000000
-126.31071755   6.20605211   0.00000000
-126.21071755   6.20595857   0.00000000
-126.11071755   6.20586466   0.00000000
-126.01071755   6.20577036   0.00000000
-125.91071755   6.20567568   0.00000000
-125.81071755   6.20558061   0.00000000
-125.71071755   6.20548516   0.00000000
-125.61071755   6.20538933   0.00000000
-125.51071755   6.20529310   0.00000000
-125.41071755   6.20519649   0.00000000
-125.31071755   6.20509949   0.00000000
-125.21071755   6.20500209   0.00000000
-125.11071755   6.20490431   0.00000000
-125.01071755   6.20480612   0.00000000
-124.91071755   6.20470755   0.00000000
-124.81071755   6.20460857   0.00000000
-124.71071755   6.20450920   0.00000000
-124.61071755   6.20440943   0.00000000
-124.51071755   6.20430926   0.00000000
-124.41071755   6.20420868   0.00000000
-124.31071755   6.20410771   0.00000000
-124.21071755   6.20400633   0.00000000
-124.11071755   6.20390454   0.00000000
-124.01071755   6.20380235   0.00000000
-123.91071755   6.20369974   0.00000000
-123.81071755   6.20359673   0.00000000
-123.71071755   6.20349331   0.00000000
-123.61071755   6.20338948   0.00000000
-123.51071755   6.20328523   0.00000000
-123.41071755   6.20318056   0.00000000
-123.31071755   6.20307549   0.00000000
-123.21071755   6.20296999   0.00000000
-123.11071755   6.20286407   0.00000000
-123.01071755   6.20275774   0.00000000
-122.91071755   6.20265098   0.00000000
-122.81071755   6.20254380   0.00000000
-122.71071755   6.20243620   0.00000000
-122.61071755   6.20232817   0.00000000
-122.51071755   6.20221972   0.00000000
-122.41071755   6.20211083   0.00000000
-122.31071755   6.20200152   0.00000000
-122.21071755   6.20189178   0.00000000
-122.11071755   6.20178160   0.00000000
-122.01071755   6.20167099   0.00000000
-121.91071755   6.20155995   0.00000000
-121.81071755   6.20144847   0.00000000
-121.71071755   6.20133655   0.00000000
-121.61071755   6.20122420   0.00000000
-121.51071755   6.20111140   0.00000000
-121.41071755   6.20099816   0.00000000
-121.31071755   6.20088448   0.00000000
-121.21071755   6.20077036   0.00000000
-121.11071755   6.20065579   0.00000000
-121.01071755   6.20054077   0.00000000
-120.91071755   6.20042530   0.00000000
-120.81071755   6.20030939   0.00000000
-120.71071755   6.20019302   0.00000000
-120.61071755   6.20007620   0.00000000
-120.51071755   6.19995893   0.00000000
-120.41071755   6.19984120   0.00000000
-120.31071755   6.19972302   0.00000000
-120.21071755   6.19960437   0.00000000
-120.11071755   6.19948527   0.00000000
-120.01071755   6.19936571   0.00000000
-119.91071755   6.19924568   0.00000000
-119.81071755   6.19912519   0.00000000
-119.71071755   6.19900424   0.00000000
-119.61071755   6.19888282   0.00000000
-119.51071755   6.19876093   0.00000000
-119.41071755   6.19863857   0.00000000
-119.31071755   6.19851574   0.00000000
-119.21071755   6.19839244   0.00000000
-119.11071755   6.19826867   0.00000000
-119.01071755   6.19814442   0.00000000
-118.91071755   6.19801970   0.00000000
-118.81071755   6.19789449   0.00000000
-118.71071755   6.19776881   0.00000000
-118.61071755   6.19764265   0.00000000
-118.51071755   6.19751601   0.00000000
-118.41071755   6.19738888   0.00000000
-118.31071755   6.19726126   0.00000000
-118.21071755   6.19713316   0.00000000
-118.11071755   6.19700458   0.00000000
-118.01071755   6.19687550   0.00000000
-117.91071755   6.19674593   0.00000000
-117.81071755   6.19661588   0.00000000
-117.71071755   6.19648532   0.00000000
-117.61071755   6.19635428   0.00000000
