#      z (A) rho (1e-6/A2) irho (1e-6/A2)
-360.98293442   6.06757152   0.00001299
-360.88293442   6.06757210   0.00001302
-360.78293442   6.06757268   0.00001306
-360.68293442   6.06757327   0.00001309
-360.58293442   6.06757385   0.00001313
-360.48293442   6.06757443   0.00001316
-360.38293442   6.06757502   0.00001320
-360.28293442   6.06757561   0.00001324
-360.18293442   6.06757620   0.00001327
-360.08293442   6.06757679   0.00001331
-359.98293442   6.06757738   0.00001334
-359.88293442   6.06757798   0.00001338
-359.78293442   6.06757857   0.00001342
-359.68293442   6.06757917   0.00001345
-359.58293442   6.06757977   0.00001349
-359.48293442   6.06758037   0.00001353
-359.38293442   6.06758097   0.00001356
-359.28293442   6.06758157   0.00001360
-359.18293442   6.06758217   0.00001364
-359.08293442   6.06758278   0.00001367
-358.98293442   6.06758339   0.00001371
-358.88293442   6.06758400   0.00001375
-358.78293442   6.06758461   0.00001379
-358.68293442   6.06758522   0.00001382
-358.58293442   6.06758583   0.00001386
-358.48293442   6.06758645   0.00001390
-358.38293442   6.06758706   0.00001394
-358.28293442   6.06758768   0.00001398
-358.18293442   6.06758830   0.00001401
-358.08293442   6.06758892   0.00001405
-357.98293442   6.06758954   0.00001409
-357.88293442   6.06759017   0.00001413
-357.78293442   6.06759079   0.00001417
-357.68293442   6.06759142   0.00001420
-357.58293442   6.06759205   0.00001424
-357.48293442   6.06759268   0.00001428
-357.38293442   6.06759331   0.00001432
-357.28293442   6.06759394   0.00001436
-357.18293442   6.06759458   0.00001440
-357.08293442   6.06759521   0.00001444
-356.98293442   6.06759585   0.00001448
-356.88293442   6.06759649   0.00001451
-356.78293442   6.06759713   0.00001455
-356.68293442   6.06759778   0.00001459
-356.58293442   6.06759842   0.00001463
-356.48293442   6.06759907   0.00001467
-356.38293442   6.06759971   0.00001471
-356.28293442   6.06760036   0.00001475
-356.18293442   6.06760101   0.00001479
-356.08293442   6.06760166   0.00001483
-355.98293442   6.06760232   0.00001487
-355.88293442   6.06760297   0.00001491
-355.78293442   6.06760363   0.00001495
-355.68293442   6.06760429   0.00001499
-355.58293442   6.06760495   0.00001503
-355.48293442   6.06760561   0.00001507
-355.38293442   6.06760628   0.00001511
-355.28293442   6.06760694   0.00001515
-355.18293442   6.06760761   0.00001520
-355.08293442   6.06760828   0.00001524
-354.98293442   6.06760895   0.00001528
-354.88293442   6.06760962   0.00001532
-354.78293442   6.06761029   0.00001536
-354.68293442   6.06761097   0.00001540
-354.58293442   6.06761164   0.00001544
-354.48293442   6.06761232   0.00001548
-354.38293442   6.06761300   0.00001553
-354.28293442   6.06761368   0.00001557
-354.18293442   6.06761437   0.00001561
-354.08293442   6.06761505   0.00001565
-353.98293442   6.06761574   0.00001569
-353.88293442   6.06761643   0.00001574
-353.78293442   6.06761712   0.00001578
-353.68293442   6.06761781   0.00001582
-353.58293442   6.06761850   0.00001586
-353.48293442   6.06761920   0.00001591
-353.38293442   6.06761990   0.00001595
-353.28293442   6.06762059   0.00001599
-353.18293442   6.06762129   0.00001603
-353.08293442   6.06762200   0.00001608
-352.98293442   6.06762270   0.00001612
-352.88293442   6.06762341   0.00001616
-352.78293442   6.06762411   0.00001621
-352.68293442   6.06762482   0.00001625
-352.58293442   6.06762553   0.00001629
-352.48293442   6.06762624   0.00001634
-352.38293442   6.06762696   0.00001638
-352.28293442   6.06762767   0.00001642
-352.18293442   6.06762839   0.00001647
-352.08293442   6.06762911   0.00001651
-351.98293442   6.06762983   0.00001656
-351.88293442   6.06763056   0.00001660
-351.78293442   6.06763128   0.00001665
-351.68293442   6.06763201   0.00001669
-351.58293442   6.06763273   0.00001673
-351.48293442   6.06763346   0.00001678
-351.38293442   6.06763420   0.00001682
-351.28293442   6.06763493   0.00001687
-351.18293442   6.06763566   0.00001691
-351.08293442   6.06763640   0.00001696
-350.98293442   6.06763714   0.00001700
-350.88293442   6.06763788   0.00001705
-350.78293442   6.06763862   0.00001710
-350.68293442   6.06763937   0.00001714
-350.58293442   6.06764011   0.00001719
-350.48293442   6.06764086   0.00001723
-350.38293442   6.06764161   0.00001728
-350.28293442   6.06764236   0.00001732
-350.18293442   6.06764312   0.00001737
-350.08293442   6.06764387   0.00001742
-349.98293442   6.06764463   0.00001746
-349.88293442   6.06764539   0.00001751
-349.78293442   6.06764615   0.00001756
-349.68293442   6.06764691   0.00001760
-349.58293442   6.06764767   0.00001765
-349.48293442   6.06764844   0.00001770
-349.38293442   6.06764921   0.00001774
-349.28293442   6.06764998   0.00001779
-349.18293442   6.06765075   0.00001784
-349.08293442   6.06765152   0.00001789
-348.98293442   6.06765230   0.00001793
-348.88293442   6.06765308   0.00001798
-348.78293442   6.06765385   0.00001803
-348.68293442   6.06765464   0.00001808
-348.58293442   6.06765542   0.00001812
-348.48293442   6.06765620   0.00001817
-348.38293442   6.06765699   0.00001822
-348.28293442   6.06765778   0.00001827
-348.18293442   6.06765857   0.00001832
-348.08293442   6.06765936   0.00001837
-347.98293442   6.06766016   0.00001841
-347.88293442   6.06766095   0.00001846
-347.78293442   6.06766175   0.00001851
-347.68293442   6.06766255   0.00001856
-347.58293442   6.06766335   0.00001861
-347.48293442   6.06766416   0.00001866
-347.38293442   6.06766496   0.00001871
-347.28293442   6.06766577   0.00001876
-347.18293442   6.06766658   0.00001881
-347.08293442   6.06766739   0.00001886
-346.98293442   6.06766820   0.00001891
-346.88293442   6.06766902   0.00001896
-346.78293442   6.06766984   0.00001901
-346.68293442   6.06767066   0.00001906
-346.58293442   6.06767148   0.00001911
-346.48293442   6.06767230   0.00001916
-346.38293442   6.06767313   0.00001921
-346.28293442   6.06767395   0.00001926
-346.18293442   6.06767478   0.00001931
-346.08293442   6.06767562   0.00001936
-345.98293442   6.06767645   0.00001941
-345.88293442   6.06767728   0.00001946
-345.78293442   6.06767812   0.00001951
-345.68293442   6.06767896   0.00001957
-345.58293442   6.06767980   0.00001962
-345.48293442   6.06768065   0.00001967
-345.38293442   6.06768149   0.00001972
-345.28293442   6.06768234   0.00001977
-345.18293442   6.06768319   0.00001982
-345.08293442   6.06768404   0.00001988
-344.98293442   6.06768489   0.00001993
-344.88293442   6.06768575   0.00001998
-344.78293442   6.06768661   0.00002003
-344.68293442   6.06768746   0.00002009
-344.58293442   6.06768833   0.00002014
-344.48293442   6.06768919   0.00002019
-344.38293442   6.06769006   0.00002025
-344.28293442   6.06769092   0.00002030
-344.18293442   6.06769179   0.00002035
-344.08293442   6.06769267   0.00002041
-343.98293442   6.06769354   0.00002046
-343.88293442   6.06769442   0.00002051
-343.78293442   6.06769529   0.00002057
-343.68293442   6.06769617   0.00002062
-343.58293442   6.06769706   0.00002067
-343.48293442   6.06769794   0.00002073
-343.38293442   6.06769883   0.00002078
-343.28293442   6.06769972   0.00002084
-343.18293442   6.06770061   0.00002089
-343.08293442   6.06770150   0.00002095
-342.98293442   6.06770239   0.00002100
-342.88293442   6.06770329   0.00002106
-342.78293442   6.06770419   0.00002111
-342.68293442   6.06770509   0.00002117
-342.58293442   6.06770599   0.00002122
-342.48293442   6.06770690   0.00002128
-342.38293442   6.06770781   0.00002133
-342.28293442   6.06770872   0.00002139
-342.18293442   6.06770963   0.00002144
-342.08293442   6.06771054   0.00002150
-341.98293442   6.06771146   0.00002156
-341.88293442   6.06771238   0.00002161
-341.78293442   6.06771330   0.00002167
-341.68293442   6.06771422   0.00002173
-341.58293442   6.06771515   0.00002178
-341.48293442   6.06771608   0.00002184
-341.38293442   6.06771700   0.00002190
-341.28293442   6.06771794   0.00002195
-341.18293442   6.06771887   0.00002201
-341.08293442   6.06771981   0.00002207
-340.98293442   6.06772074   0.00002213
-340.88293442   6.06772169   0.00002218
-340.78293442   6.06772263   0.00002224
-340.68293442   6.06772357   0.00002230
-340.58293442   6.06772452   0.00002236
-340.48293442   6.06772547   0.00002241
-340.38293442   6.06772642   0.00002247
-340.28293442   6.06772737   0.00002253
-340.18293442   6.06772833   0.00002259
-340.08293442   6.06772929   0.00002265
-339.98293442   6.06773025   0.00002271
-339.88293442   6.06773121   0.00002277
-339.78293442   6.06773218   0.00002283
-339.68293442   6.06773315   0.00002288
-339.58293442   6.06773411   0.00002294
-339.48293442   6.06773509   0.00002300
-339.38293442   6.06773606   0.00002306
-339.28293442   6.06773704   0.00002312
-339.18293442   6.06773802   0.00002318
-339.08293442   6.06773900   0.00002324
-338.98293442   6.06773998   0.00002330
-338.88293442   6.06774097   0.00002336
-338.78293442   6.06774195   0.00002342
-338.68293442   6.06774294   0.00002349
-338.58293442   6.06774394   0.00002355
-338.48293442   6.06774493   0.00002361
-338.38293442   6.06774593   0.00002367
-338.28293442   6.06774693   0.00002373
-338.18293442   6.06774793   0.00002379
-338.08293442   6.06774894   0.00002385
-337.98293442   6.06774994   0.00002391
-337.88293442   6.06775095   0.00002398
-337.78293442   6.06775196   0.00002404
-337.68293442   6.06775298   0.00002410
-337.58293442   6.06775399   0.00002416
-337.48293442   6.06775501   0.00002422
-337.38293442   6.06775603   0.00002429
-337.28293442   6.06775705   0.00002435
-337.18293442   6.06775808   0.00002441
-337.08293442   6.06775911   0.00002448
-336.98293442   6.06776014   0.00002454
-336.88293442   6.06776117   0.00002460
-336.78293442   6.06776221   0.00002466
-336.68293442   6.06776324   0.00002473
-336.58293442   6.06776428   0.00002479
-336.48293442   6.06776533   0.00002486
-336.38293442   6.06776637   0.00002492
-336.28293442   6.06776742   0.00002498
-336.18293442   6.06776847   0.00002505
-336.08293442   6.06776952   0.00002511
-335.98293442   6.06777058   0.00002518
-335.88293442   6.06777163   0.00002524
-335.78293442   6.06777269   0.00002531
-335.68293442   6.06777375   0.00002537
-335.58293442   6.06777482   0.00002544
-335.48293442   6.06777589   0.00002550
-335.38293442   6.06777695   0.00002557
-335.28293442   6.06777803   0.00002563
-335.18293442   6.06777910   0.00002570
-335.08293442   6.06778018   0.00002577
-334.98293442   6.06778126   0.00002583
-334.88293442   6.06778234   0.00002590
-334.78293442   6.06778342   0.00002596
-334.68293442   6.06778451   0.00002603
-334.58293442   6.06778560   0.00002610
-334.48293442   6.06778669   0.00002616
-334.38293442   6.06778779   0.00002623
-334.28293442   6.06778888   0.00002630
-334.18293442   6.06778998   0.00002637
-334.08293442   6.06779108   0.00002643
-333.98293442   6.06779219   0.00002650
-333.88293442   6.06779330   0.00002657
-333.78293442   6.06779441   0.00002664
-333.68293442   6.06779552   0.00002671
-333.58293442   6.06779663   0.00002677
-333.48293442   6.06779775   0.00002684
-333.38293442   6.06779887   0.00002691
-333.28293442   6.06779999   0.00002698
-333.18293442   6.06780112   0.00002705
-333.08293442   6.06780225   0.00002712
-332.98293442   6.06780338   0.00002719
-332.88293442   6.06780451   0.00002726
-332.78293442   6.06780564   0.00002733
-332.68293442   6.06780678   0.00002740
-332.58293442   6.06780792   0.00002746
-332.48293442   6.06780907   0.00002753
-332.38293442   6.06781021   0.00002761
-332.28293442   6.06781136   0.00002768
-332.18293442   6.06781251   0.00002775
-332.08293442   6.06781367   0.00002782
-331.98293442   6.06781482   0.00002789
-331.88293442   6.06781598   0.00002796
-331.78293442   6.06781714   0.00002803
-331.68293442   6.06781831   0.00002810
-331.58293442   6.06781948   0.00002817
-331.48293442   6.06782065   0.00002824
-331.38293442   6.06782182   0.00002832
-331.28293442   6.06782299   0.00002839
-331.18293442   6.06782417   0.00002846
-331.08293442   6.06782535   0.00002853
-330.98293442   6.06782654   0.00002860
-330.88293442   6.06782772   0.00002868
-330.78293442   6.06782891   0.00002875
-330.68293442   6.06783010   0.00002882
-330.58293442   6.06783130   0.00002890
-330.48293442   6.06783249   0.00002897
-330.38293442   6.06783369   0.00002904
-330.28293442   6.06783490   0.00002912
-330.18293442   6.06783610   0.00002919
-330.08293442   6.06783731   0.00002926
-329.98293442   6.06783852   0.00002934
-329.88293442   6.06783973   0.00002941
-329.78293442   6.06784095   0.00002949
-329.68293442   6.06784217   0.00002956
-329.58293442   6.06784339   0.00002964
-329.48293442   6.06784461   0.00002971
-329.38293442   6.06784584   0.00002979
-329.28293442   6.06784707   0.00002986
-329.18293442   6.06784830   0.00002994
-329.08293442   6.06784954   0.00003001
-328.98293442   6.06785078   0.00003009
-328.88293442   6.06785202   0.00003017
-328.78293442   6.06785326   0.00003024
-328.68293442   6.06785451   0.00003032
-328.58293442   6.06785576   0.00003040
-328.48293442   6.06785701   0.00003047
-328.38293442   6.06785827   0.00003055
-328.28293442   6.06785953   0.00003063
-328.18293442   6.06786079   0.00003070
-328.08293442   6.06786205   0.00003078
-327.98293442   6.06786332   0.00003086
-327.88293442   6.06786459   0.00003094
-327.78293442   6.06786586   0.00003101
-327.68293442   6.06786714   0.00003109
-327.58293442   6.06786842   0.00003117
-327.48293442   6.06786970   0.00003125
-327.38293442   6.06787098   0.00003133
-327.28293442   6.06787227   0.00003141
-327.18293442   6.06787356   0.00003149
-327.08293442   6.06787485   0.00003156
-326.98293442   6.06787615   0.00003164
-326.88293442   6.06787745   0.00003172
-326.78293442   6.06787875   0.00003180
-326.68293442   6.06788005   0.00003188
-326.58293442   6.06788136   0.00003196
-326.48293442   6.06788267   0.00003204
-326.38293442   6.06788399   0.00003212
-326.28293442   6.06788530   0.00003220
-326.18293442   6.06788662   0.00003229
-326.08293442   6.06788795   0.00003237
-325.98293442   6.06788927   0.00003245
-325.88293442   6.06789060   0.00003253
-325.78293442   6.06789193   0.00003261
-325.68293442   6.06789327   0.00003269
-325.58293442   6.06789460   0.00003277
-325.48293442   6.06789594   0.00003286
-325.38293442   6.06789729   0.00003294
-325.28293442   6.06789863   0.00003302
-325.18293442   6.06789998   0.00003310
-325.08293442   6.06790134   0.00003319
-324.98293442   6.06790269   0.00003327
-324.88293442   6.06790405   0.00003335
-324.78293442   6.06790541   0.00003344
-324.68293442   6.06790678   0.00003352
-324.58293442   6.06790814   0.00003360
-324.48293442   6.06790952   0.00003369
-324.38293442   6.06791089   0.00003377
-324.28293442   6.06791227   0.00003386
-324.18293442   6.06791365   0.00003394
-324.08293442   6.06791503   0.00003403
-323.98293442   6.06791642   0.00003411
-323.88293442   6.06791781   0.00003420
-323.78293442   6.06791920   0.00003428
-323.68293442   6.06792059   0.00003437
-323.58293442   6.06792199   0.00003445
-323.48293442   6.06792340   0.00003454
-323.38293442   6.06792480   0.00003462
-323.28293442   6.06792621   0.00003471
-323.18293442   6.06792762   0.00003480
-323.08293442   6.06792903   0.00003488
-322.98293442   6.06793045   0.00003497
-322.88293442   6.06793187   0.00003506
-322.78293442   6.06793330   0.00003514
-322.68293442   6.06793472   0.00003523
-322.58293442   6.06793616   0.00003532
-322.48293442   6.06793759   0.00003541
-322.38293442   6.06793903   0.00003549
-322.28293442   6.06794047   0.00003558
-322.18293442   6.06794191   0.00003567
-322.08293442   6.06794336   0.00003576
-321.98293442   6.06794481   0.00003585
-321.88293442   6.06794626   0.00003594
-321.78293442   6.06794771   0.00003603
-321.68293442   6.06794917   0.00003612
-321.58293442   6.06795064   0.00003621
-321.48293442   6.06795210   0.00003630
-321.38293442   6.06795357   0.00003639
-321.28293442   6.06795504   0.00003648
-321.18293442   6.06795652   0.00003657
-321.08293442   6.06795800   0.00003666
-320.98293442   6.06795948   0.00003675
-320.88293442   6.06796097   0.00003684
-320.78293442   6.06796245   0.00003693
-320.68293442   6.06796395   0.00003702
-320.58293442   6.06796544   0.00003711
-320.48293442   6.06796694   0.00003720
-320.38293442   6.06796844   0.00003730
-320.28293442   6.06796995   0.00003739
-320.18293442   6.06797146   0.00003748
-320.08293442   6.06797297   0.00003757
-319.98293442   6.06797448   0.00003767
-319.88293442   6.06797600   0.00003776
-319.78293442   6.06797753   0.00003785
-319.68293442   6.06797905   0.00003795
-319.58293442   6.06798058   0.00003804
-319.48293442   6.06798211   0.00003813
-319.38293442   6.06798365   0.00003823
-319.28293442   6.06798519   0.00003832
-319.18293442   6.06798673   0.00003842
-319.08293442   6.06798827   0.00003851
-318.98293442   6.06798982   0.00003861
-318.88293442   6.06799138   0.00003870
-318.78293442   6.06799293   0.00003880
-318.68293442   6.06799449   0.00003889
-318.58293442   6.06799605   0.00003899
-318.48293442   6.06799762   0.00003908
-318.38293442   6.06799919   0.00003918
-318.28293442   6.06800076   0.00003928
-318.18293442   6.06800234   0.00003937
-318.08293442   6.06800392   0.00003947
-317.98293442   6.06800550   0.00003957
-317.88293442   6.06800709   0.00003966
-317.78293442   6.06800868   0.00003976
-317.68293442   6.06801028   0.00003986
-317.58293442   6.06801187   0.00003996
-317.48293442   6.06801348   0.00004005
-317.38293442   6.06801508   0.00004015
-317.28293442   6.06801669   0.00004025
-317.18293442   6.06801830   0.00004035
-317.08293442   6.06801992   0.00004045
-316.98293442   6.06802153   0.00004055
-316.88293442   6.06802316   0.00004065
-316.78293442   6.06802478   0.00004075
-316.68293442   6.06802641   0.00004085
-316.58293442   6.06802804   0.00004095
-316.48293442   6.06802968   0.00004105
-316.38293442   6.06803132   0.00004115
-316.28293442   6.06803297   0.00004125
-316.18293442   6.06803461   0.00004135
-316.08293442   6.06803626   0.00004145
-315.98293442   6.06803792   0.00004155
-315.88293442   6.06803958   0.00004165
-315.78293442   6.06804124   0.00004176
-315.68293442   6.06804290   0.00004186
-315.58293442   6.06804457   0.00004196
-315.48293442   6.06804625   0.00004206
-315.38293442   6.06804792   0.00004216
-315.28293442   6.06804960   0.00004227
-315.18293442   6.06805129   0.00004237
-315.08293442   6.06805297   0.00004247
-314.98293442   6.06805466   0.00004258
-314.88293442   6.06805636   0.00004268
-314.78293442   6.06805806   0.00004279
-314.68293442   6.06805976   0.00004289
-314.58293442   6.06806146   0.00004299
-314.48293442   6.06806317   0.00004310
-314.38293442   6.06806489   0.00004320
-314.28293442   6.06806660   0.00004331
-314.18293442   6.06806833   0.00004341
-314.08293442   6.06807005   0.00004352
-313.98293442   6.06807178   0.00004363
-313.88293442   6.06807351   0.00004373
-313.78293442   6.06807525   0.00004384
-313.68293442   6.06807698   0.00004394
-313.58293442   6.06807873   0.00004405
-313.48293442   6.06808048   0.00004416
-313.38293442   6.06808223   0.00004427
-313.28293442   6.06808398   0.00004437
-313.18293442   6.06808574   0.00004448
-313.08293442   6.06808750   0.00004459
-312.98293442   6.06808927   0.00004470
-312.88293442   6.06809104   0.00004481
-312.78293442   6.06809281   0.00004491
-312.68293442   6.06809459   0.00004502
-312.58293442   6.06809637   0.00004513
-312.48293442   6.06809815   0.00004524
-312.38293442   6.06809994   0.00004535
-312.28293442   6.06810174   0.00004546
-312.18293442   6.06810353   0.00004557
-312.08293442   6.06810533   0.00004568
-311.98293442   6.06810714   0.00004579
-311.88293442   6.06810895   0.00004590
-311.78293442   6.06811076   0.00004601
-311.68293442   6.06811258   0.00004612
-311.58293442   6.06811440   0.00004624
-311.48293442   6.06811622   0.00004635
-311.38293442   6.06811805   0.00004646
-311.28293442   6.06811988   0.00004657
