# intensity: 1.02483342059336
# background: 0
#           Q (1/A)             dQ (1/A)                    R                   dR               theory              fresnel
  0.0153875057363614 0.000181277952731051    0.664483388902221   0.0579390507699926    0.715648120178262    0.185515007706948
  0.0156183183224068 0.000183997122022016    0.710749323345361   0.0590060482985899    0.675105090997133    0.172305369676579
  0.0158525930972429 0.000186757078852347    0.588689342718432   0.0511656989148596    0.607370864472065     0.15337718804489
  0.0160903819937015 0.000189558435035132    0.528348672258987   0.0497812903532174    0.527343374623143    0.134756998150398
  0.0163317377236071 0.000192401811560659    0.544316210498361   0.0487817707353049     0.44835490194242    0.118957895739475
  0.0165767137894612 0.000195287838734069     0.41028636327449   0.0385287225378679    0.375847204890293    0.105620361054902
  0.0168253644963031  0.00019821715631508    0.364507242672455   0.0350554795100247    0.312538687994846   0.0942425812645549
  0.0170777449637476 0.000201190413659806    0.249140117108289   0.0264286022907304    0.258998774983642   0.0844478999704935
  0.0173339111382038 0.000204208269864703    0.259904326444597   0.0264274973987686    0.214140847645786   0.0759508848940151
  0.0175939198052769 0.000207271393912673    0.205385419856283    0.021235588789416    0.176115174473743   0.0685307313042717
   0.017857828602356 0.000210380464821363    0.138607295276293   0.0163268458757901     0.14314207023612   0.0620136435961489
  0.0181256960313914 0.000213536171793684   0.0990928302794399   0.0123546331612557     0.11402989965024   0.0562607880694408
  0.0183975814718623 0.000216739214370589   0.0700791206784248  0.00975215774862652   0.0883545925264314   0.0511598317446922
  0.0186735451939402 0.000219990302586148   0.0665074515344908  0.00924293529432677   0.0663819135884421   0.0466188619752249
  0.0189536483718493  0.00022329015712494   0.0449603357102273  0.00707209782752413   0.0488245973971081   0.0425619292203836
   0.019237953097427 0.000226639509481814   0.0319958865117016  0.00616927379638754   0.0365141920620453   0.0389257222639209
  0.0195265223938884 0.000230039102124041   0.0250018718124592   0.0061611654019575   0.0300656054489771    0.035657049668899
  0.0198194202297968 0.000233489688655902   0.0193908791327534  0.00545533059943293   0.0296141959174966   0.0327109056049603
  0.0201167115332437  0.00023699203398574   0.0364404789552923  0.00586555707618039   0.0346898250160008   0.0300489660627078
  0.0204184622062424 0.000240546914495527   0.0360037819324648  0.00551080959200198   0.0442510279765858     0.02763840662933
   0.020724739139336 0.000244155118212959   0.0493347163284093  0.00634938822180019   0.0568499716567037   0.0254509636531005
   0.021035610226426 0.000247817444986154    0.077790960196065  0.00848997587592512   0.0708616980508948   0.0234621818109161
  0.0213511443798224 0.000251534706660946   0.0702784238509189  0.00768601519430674   0.0847061371069702   0.0216508059779183
  0.0216714115455197  0.00025530772726086   0.0927111717209658  0.00926624818264089   0.0970143251851916   0.0199982859126833
  0.0219964827187025 0.000259137343169773    0.113415078434985   0.0104379234737274    0.106723066764039   0.0184883699443681
  0.0223264299594831  0.00026302440331732    0.122300288733059    0.010879207919017    0.113107913586858   0.0171067694644826
  0.0226613264088753 0.000266969769367079    0.108823210180843  0.00828900416130957     0.11577579541384   0.0158408801844712
  0.0230012463050085 0.000270974315907586    0.107866065976932  0.00829289605326646    0.114637987635587    0.014679549232359
  0.0233462649995836 0.000275038930646199    0.126111759537957   0.0089824802526781    0.109877045482903   0.0136128795137869
  0.0236964589745773 0.000279164514605892    0.108215286189934  0.00831459373488413    0.101912925232487   0.0126320645568162
   0.024051905859196 0.000283351982324981   0.0883109570001147  0.00676007082524399   0.0913667672424576   0.0117292484400943
  0.0244126844470839 0.000287602262059855   0.0803543841206554  0.00673626672367871   0.0790171487541048   0.0108974064743285
  0.0247788747137902 0.000291916295990753   0.0642437413054965  0.00578422406852454   0.0657435688024474   0.0101302431433339
   0.025150557834497 0.000296295040430614   0.0489076848660822  0.00460232986283009   0.0524554011560344  0.00942210446899787
  0.0255278162020145 0.000300739466037074   0.0391065925079129  0.00409979866795131   0.0400105283529783  0.00876790248576752
  0.0259107334450447  0.00030525055802763   0.0354481782621974  0.00371705625366225   0.0291341908664491   0.0081630499257529
  0.0262993944467204 0.000309829316398044   0.0212982241062032  0.00265323173271148   0.0203523855038306  0.00760340354866965
  0.0266938853634212 0.000314476756144015   0.0151015115630656  0.00226449612921773   0.0139531321232984  0.00708521481944429
  0.0270942936438725 0.000319193907486175  0.00910557608949833  0.00170465195940333  0.00998282424901798  0.00660508685401782
  0.0275007080485306 0.000323981816098467  0.00665750538780155  0.00126529497365423   0.0082759242849968  0.00615993673124113
  0.0279132186692585 0.000328841543339945  0.00749034431704362  0.00142431334233959  0.00850813049236468  0.00574696241392688
  0.0283319169492974 0.000333774166490044   0.0118036778378848   0.0017168953817953   0.0102589319422162  0.00536361364149045
  0.0287568957035369 0.000338780778987394   0.0133773803491176  0.00181766258579719    0.013070175828611  0.00500756625518709
  0.0291882491390899 0.000343862490672205   0.0166786674166935  0.00214081590828563   0.0164916793847708  0.00467669949869288
  0.0296260728761763 0.000349020428032288   0.0229231903827827  0.00259350001772942   0.0201106783473533    0.004369075904825
  0.0300704639693189 0.000354255734452772   0.0216533259324105  0.00245462788753948   0.0235668597258762  0.00408292343605936
  0.0305215209288587 0.000359569570469564   0.0286541795710806    0.002985504472118   0.0265576774256274  0.00381661959419074
  0.0309793437427915 0.000364963114026607   0.0302314705624274  0.00317428074884479   0.0288394034194157  0.00356867725461055
  0.0314440338989334 0.000370437560737007   0.0282361538807973  0.00298716786356031   0.0302283928982954  0.00333773201456004
  0.0319156944074174 0.000375994124148062   0.0277070090817409   0.0027834123451794   0.0306050629656195  0.00312253087341471
  0.0323944298235287 0.000381634036010282   0.0224664265319325  0.00252189994287522   0.0299208000425436  0.00292192208743717
  0.0328803462708816 0.000387358546550437   0.0267794027407181  0.00310210723914497   0.0282059627030511  0.00273484606220992
  0.0333735514649448 0.000393168924748693   0.0250807508934215  0.00298188537107878   0.0255756960375772  0.00256032716371037
   0.033874154736919 0.000399066458619924   0.0256550608734546  0.00309239847175622    0.022229647748091  0.00239746634419898
  0.0343822670579728 0.000405052455499222   0.0204677149894803  0.00253651134419479   0.0184420263784784  0.00224543449215562
  0.0348980010638424 0.000411128242331711   0.0147995317242008  0.00197641523775668   0.0145398556874166  0.00210346642674995
     0.0354214710798 0.000417295165966686   0.0105938368419477  0.00155800694213749   0.0108696972809957  0.00197085546704375
   0.035952793145997 0.000423554593456187  0.00708809869216932  0.00126488878688808  0.00775617954080362   0.0018469485145269
  0.0364920850431869 0.000429907912358029   0.0048910598906497 0.000981303379580968  0.00545863027182419  0.00173114159487698
  0.0370394663188347   0.0004363565310434  0.00502098546345794  0.00104342949440675  0.00413392781279232  0.00162287581116656
  0.0375950583136173 0.000442901879009051  0.00473689930964641 0.000984159331361937  0.00381344392350492   0.0015216336662595
  0.0381589841883215 0.000449545407194186  0.00446034997981175 0.000947420290278305  0.00439937811735783  0.00142693571695222
  0.0387313689511463 0.000456288588302099  0.00785270981987391  0.00136043148990165  0.00568154743592627  0.00133833752662671
  0.0393123394854135 0.000463132917126631  0.00864639260982224  0.00140173625898085   0.0073712037951872  0.00125542688687079
  0.0399020245776947  0.00047007991088353   0.0102714470512515  0.00165947438206834  0.00914518286604406  0.00117782128175957
  0.0405005549463601 0.000477131109546783   0.0111257902244933  0.00180110953611303   0.0106924889104999  0.00110516557133912
  0.0411080632705555 0.000484288076189985   0.0112620644188948  0.00171794243016552   0.0117561903972771  0.00103712987336197
  0.0417246842196139 0.000491552397332834   0.0118190765443398  0.00182160138819133   0.0121654334545779 0.000973407624536929
  0.0423505544829081 0.000498925683292827   0.0132203581013912  0.00194806616102849   0.0118545062785276 0.000913713804511875
  0.0429858128001517 0.000506409568542219   0.0119336063932233  0.00192636584488426   0.0108675781141891 0.000857783307539905
   0.043630599992154 0.000514005712070352  0.00836775673147042  0.00145514290520534  0.00934890878842821 0.000805369448314023
  0.0442850589920363 0.000521715797751407  0.00693093594730496  0.00135123923376977  0.00751933545924296 0.000756242589818986
  0.0449493348769168 0.000529541534717679  0.00677863058863526  0.00128203579105709  0.00564117429441122 0.000710188882260874
  0.0456235749000706 0.000537484657738444     0.00535885337107   0.0011592848856936  0.00397556362553834 0.000667009103214401
  0.0463079285235716  0.00054554692760452  0.00464702853522132  0.00105868210444476   0.0027384428186973 0.000626517590090402
  0.0470025474514252 0.000553730131518588  0.00282641421438754 0.000753091713833524   0.0020629938743787 0.000588541256885414
  0.0477075856631966 0.000562036083491367  0.00350520866368829 0.000804135377143155  0.00197644676885418 0.000552918687943661
  0.0484231994481445 0.000570466624743737  0.00336686980257073 0.000962327314526997   0.0023970051490083 0.000519499302149588
  0.0491495474398667 0.000579023624114893  0.00203355094189142 0.000678795085847989  0.00315249493457369 0.000488142581585714
  0.0498867906514647 0.000587708978476617  0.00411849442331875 0.000911894274087892  0.00401731212241247 0.000458717359243872
  0.0506350925112366 0.000596524613153766  0.00558082000501763  0.00132966293252703  0.00475991659332918 0.000431101160875056
  0.0513946188989052 0.000605472482351072  0.00721335374031826   0.0015563209294907  0.00519073705048173 0.000405179596510277
  0.0521655381823887 0.000614554569586338  0.00662530933572882  0.00152143446159529  0.00520036045537266 0.000380845797587511
  0.0529480212551246 0.000623772888130133  0.00581139099963906  0.00143162838389959  0.00477996730501004 0.000357999895982878
  0.0537422415739514 0.000633129481452085   0.0028605252257765 0.000871272637833045  0.00401952022354542  0.00033654854157175
  0.0545483751975607 0.000642626423673866  0.00531422970931548  0.00141305474460769  0.00308366620541337 0.000316404455241499
  0.0553666008255241 0.000652265820028974   0.0028081695178674 0.000943099220057322   0.0021701859886178 0.000297486014545201
   0.056197099837907 0.000662049807329409 0.000592929765235521 0.000355576676307833  0.00146036875156541 0.000279716869427876
  0.0570400563354756  0.00067198055443935 0.000748776708275264 0.000464947767620756  0.00107366346604515 0.000263025585676356
  0.0578956571805077  0.00068206026275594  0.00122411095054342  0.00144849044410374  0.00103891655767649 0.000247345313942957
  0.0587640920382153 0.000692291166697279  0.00266486320357415  0.00126031774579513  0.00128593647272747 0.000232767521120935
  0.0596455534187885 0.000702675534197738  0.00197774195694481 0.000860191900865854  0.00162981747212648 0.000220786542521542
  0.0605402367200703 0.000713215667210704  0.00231374598778961  0.00116978932562683  0.00186368214579447 0.000213721764427261
