# intensity: 0.962625726263921
# background: 1.77703678336193e-07
#           Q (1/A)             dQ (1/A)                    R                   dR               theory              fresnel
  0.0153875057363614 0.000182014864680675    0.785123088841267   0.0517102864562873     0.71691183838064    0.170563492679287
  0.0156183183224068 0.000184745087650886    0.729336433901609   0.0480760937752749    0.701421105786507    0.158552788646178
  0.0158525930972429 0.000187516263965649    0.681932562167901    0.044421599212984    0.674228585010987     0.14131810839057
  0.0160903819937015 0.000190329007925134    0.711731622185896   0.0515131146028021    0.638560417096182    0.124301748170805
  0.0163317377236071 0.000193183943044011     0.63466430064946   0.0461974889077292     0.59692490036826    0.109826688179042
  0.0165767137894612 0.000196081702189671    0.533033408045146   0.0393832404417304    0.549282672366848   0.0975860190254608
  0.0168253644963031 0.000199022927722516    0.497509330978698   0.0368777017880633    0.495518811158196   0.0871294530304089
  0.0170777449637476 0.000202008271638353    0.461032797810195   0.0340422080425542    0.436002134499456   0.0781173085973065
  0.0173339111382038 0.000205038395712929    0.416852770608987   0.0309303123080746    0.371796233465574   0.0702913651450512
  0.0175939198052769 0.000208113971648623    0.352941620528167   0.0261861063778403    0.304814574792586   0.0634513443458269
   0.017857828602356 0.000211235681223352    0.250970301066385   0.0198026976846846    0.237837396816585   0.0574392556341727
  0.0181256960313914 0.000214404216441702    0.194759789215031   0.0156794179668385     0.17429790112169   0.0521286487319892
  0.0183975814718623 0.000217620279688328    0.148858287153617   0.0125907869946199    0.117806232133743   0.0474170393797036
  0.0186735451939402 0.000220884583883653   0.0848896250895605  0.00801063934455556   0.0714980233888965   0.0432204501482034
  0.0189536483718493 0.000224197852641907   0.0514211230000655  0.00549691883227549   0.0374104419678301   0.0394693982088942
   0.019237953097427 0.000227560820431536   0.0271506083626591  0.00384258667462423   0.0161147111872765   0.0361058956496602
  0.0195265223938884 0.000230974232738009   0.0108358611497514  0.00328940685115611  0.00673147933658612   0.0330811725786632
  0.0198194202297968 0.000234438846229079   0.0129586192542869    0.002525200306442  0.00728431530165895   0.0303539253527994
  0.0201167115332437 0.000237955428922515   0.0196359233965122  0.00290172746601267   0.0152190514738683   0.0278889523761553
  0.0204184622062424 0.000241524760356353     0.03079279752394   0.0034985107660945   0.0278989170373196   0.0256560800217718
   0.020724739139336 0.000245147631761698   0.0440885301052382  0.00428739572356637   0.0429558334681516   0.0236293085269487
   0.021035610226426 0.000248824846238124    0.077045313647615  0.00670892846732732   0.0584697558916932   0.0217861266241861
  0.0213511443798224 0.000252557218931695   0.0658661083662655   0.0056887958796531   0.0730098068641013   0.0201069569856082
  0.0216714115455197 0.000256345577215671   0.0923500122958473  0.00752830424252283   0.0855917254881502    0.018574704073101
  0.0219964827187025 0.000260190760873906    0.100167907874437  0.00790667501716323   0.0955994830797853   0.0171743828766466
  0.0223264299594831 0.000264093622287014   0.0991647175086763  0.00775955056213698    0.102702368131389   0.0158928120752235
  0.0226613264088753  0.00026805502662132   0.0997696241825855  0.00606426731972306    0.106783382549657   0.0147183589010533
  0.0230012463050085 0.000272075852020639    0.105037955612719  0.00640193911325129    0.107884241929048   0.0136407257956791
  0.0233462649995836 0.000276156989800949    0.103580141115369  0.00615321323462988    0.106166433517642   0.0126507710712251
  0.0236964589745773 0.000280299344647963    0.111132375195767  0.00668343395679999    0.101885158905508   0.0117403574129625
   0.024051905859196 0.000284503834817683   0.0861727826954016  0.00524725807902526   0.0953721553543001   0.0109022233091977
  0.0244126844470839 0.000288771392339948   0.0863915362068822  0.00562247862716552   0.0870234165764895   0.0101298734648452
  0.0247788747137902 0.000293102963225047   0.0758432501311761  0.00513010620575251   0.0772882443515822  0.00941748501400568
   0.025150557834497 0.000297499507673423   0.0635319119569182  0.00434171756119366   0.0666566887562648  0.00875982694464162
  0.0255278162020145 0.000301962000288524   0.0555523487756156  0.00395897862237648   0.0556432694847499  0.00815219062236977
  0.0259107334450447 0.000306491430292852   0.0497017201624246  0.00352936824538817   0.0447659458573898  0.00759032967847065
  0.0262993944467204 0.000311088801747245   0.0346010097947489  0.00267029484296016   0.0345205977478292  0.00707040783059709
  0.0266938853634212 0.000315755133773453   0.0256646151621338   0.0021533086367141   0.0253526616856206  0.00658895344946537
  0.0270942936438725 0.000320491460780055   0.0182480509247303  0.00169689692032293   0.0176287850806995   0.0061428198833801
  0.0275007080485306 0.000325298832691756   0.0109461094232429  0.00122856678070399   0.0116121042122717   0.0057291507143165
  0.0279132186692585 0.000330178315182132  0.00733390206434376 0.000888358075925449  0.00744475528175938  0.00534534925186726
  0.0283319169492974 0.000335130989909864  0.00584655718429528 0.000787152515292201  0.00514040289714872  0.00498905168044642
  0.0287568957035369 0.000340157954758512   0.0047571555658617 0.000688305787727726  0.00458807379526777  0.00465810336527975
  0.0291882491390899  0.00034526032407989  0.00492550419143034 0.000737126260173498  0.00556679193508057  0.00435053789749757
  0.0296260728761763 0.000350439228941088  0.00809514971537881 0.000999955105061497  0.00776889378682573  0.00406455852093778
  0.0300704639693189 0.000355695817375204   0.0122963766788607  0.00126577173431503   0.0108288525114054  0.00379852163534778
  0.0305215209288587 0.000361031254635832   0.0134090616179825  0.00135494811192881   0.0143541414180172  0.00355092211437137
  0.0309793437427915  0.00036644672345537   0.0170680655312205  0.00160002354284244   0.0179550605404086   0.0033203802134979
  0.0314440338989334   0.0003719434243072   0.0218965901054092  0.00190486244362996   0.0212712912690825  0.00310562987422791
  0.0319156944074174 0.000377522575671808   0.0193864725522053  0.00168920193975862   0.0239939177372535  0.00290550825704339
  0.0323944298235287 0.000383185414306885   0.0220628437836221  0.00191280349728453   0.0258824824328722  0.00271894635815264
  0.0328803462708816 0.000388933195521489   0.0275369593569038  0.00248869832775789   0.0267771526638951  0.00254496058405799
  0.0333735514649448 0.000394767193454311   0.0269480286233788  0.00244660354026348   0.0266062098684434  0.00238264517430319
   0.033874154736919 0.000400688701356125   0.0263251045640783  0.00249108804680577   0.0253888876354244  0.00223116537673455
  0.0343822670579728 0.000406699031876467   0.0245485200678304  0.00231578136140125    0.023233211321489  0.00208975129162159
  0.0348980010638424 0.000412799517354614   0.0197880468688776  0.00189662993600679   0.0203281263035344  0.00195769231133018
     0.0354214710798 0.000418991510114933    0.015388265322271  0.00155349183140565   0.0169290706530199  0.00183433209117685
   0.035952793145997 0.000425276382766657     0.01484669804867  0.00155002924842687   0.0133364687018822  0.00171906399482716
  0.0364920850431869 0.000431655528508157  0.00842348799598711 0.000997922920862404   0.0098675281118314  0.00161132696431075
  0.0370394663188347  0.00043813036143578  0.00721530446178396 0.000934870400196451  0.00682316901243535  0.00151060177055868
  0.0375950583136173 0.000444702316857316  0.00398285675085895 0.000621004546210389  0.00445360055790608  0.00141640760545123
  0.0381589841883215 0.000451372851610176   0.0026199857006778 0.000480845857670741  0.00292745106419182   0.0013282989808004
  0.0387313689511463 0.000458143444384329  0.00232419830374418 0.000500684859845048  0.00230983469762698  0.00124586290357275
  0.0393123394854135 0.000465015596050093  0.00271454059987319 0.000514513922335846  0.00255387299818332   0.0011687163000586
  0.0399020245776947 0.000471990829990845  0.00349587779077291 0.000603836160092044  0.00350800462835202   0.0010965036646804
  0.0405005549463601 0.000479070692440707  0.00650480785899674 0.000939341931027896    0.004938454785816  0.00102889491175883
  0.0411080632705555 0.000486256752827318  0.00652372140976415  0.00091878399591014  0.00656336184395311 0.000965583410870042
  0.0417246842196139 0.000493550604119728   0.0080610665810712  0.00105560749493574  0.00809307611604576 0.000906284188469252
  0.0423505544829081 0.000500953863181523   0.0114433417977808  0.00142886186362701  0.00927045099108081 0.000850732280261995
  0.0429858128001517 0.000508468171129246   0.0123913669921173  0.00159861901757596  0.00990542696277029 0.000798681220402552
   0.043630599992154 0.000516095193696185   0.0095646658557281  0.00128161061822624  0.00989941504525592 0.000749901655017024
  0.0442850589920363 0.000523836621601628   0.0109538607449673  0.00146248264507147  0.00925644721664227 0.000704180068807444
  0.0449493348769168 0.000531694170925652  0.00759601893155008  0.00101310782141601  0.00807954336183733 0.000661317614613142
  0.0456235749000706 0.000539669583489537  0.00758924485743447  0.00118658438052517  0.00655231047694118 0.000621129036802971
  0.0463079285235716  0.00054776462724188  0.00542190051983126 0.000920133001700284  0.00490764844552702 0.000583441680261475
  0.0470025474514252 0.000555981096650508  0.00333979720072425 0.000655422673630649  0.00338765519956845  0.00054809457752658
  0.0477075856631966 0.000564320813100265  0.00173819739857719  0.00040353869610916  0.00220107819249226 0.000514937607346781
  0.0484231994481445 0.000572785625296769  0.00182401011630291 0.000471476018872497  0.00148619634852105  0.00048383071856185
  0.0491495474398667 0.000581377409676221  0.00124491754879618 0.000300530777004443  0.00128694154725846 0.000454643213781406
  0.0498867906514647 0.000590098070821364   0.0011535479719678 0.000296220837442611  0.00154785811229279 0.000427253087847491
  0.0506350925112366 0.000598949541883685  0.00305719449712172 0.000703680984250822  0.00212944067558378 0.000401546416527234
  0.0513946188989052  0.00060793378501194  0.00326907612707453 0.000683103730238998  0.00284060624990744 0.000377416791295497
  0.0521655381823887 0.000617052791787119  0.00418490117430363 0.000938617214340901  0.00348102069201498 0.000354764796440083
  0.0529480212551246 0.000626308583663925  0.00403924388939514 0.000899218285270472  0.00388385862970309 0.000333497525058076
  0.0537422415739514 0.000635703212418884  0.00280029471433431 0.000623635404539543  0.00394971490272065 0.000313528130815189
  0.0545483751975607 0.000645238760605168  0.00333090329149066 0.000802575763125163   0.0036644919857009 0.000294775412614024
  0.0553666008255241 0.000654917342014245  0.00338816984823107 0.000844885326199911  0.00309754076304715 0.000277163429564977
   0.056197099837907 0.000664741102144459  0.00252897944692129 0.000611982395247668  0.00238053104962233 0.000260621143877881
  0.0570400563354756 0.000674712218676625  0.00103022641269697 0.000401969291788181  0.00167190053907491 0.000245082089495825
  0.0578956571805077 0.000684832901956775  0.00213996153040601  0.00112408022251189  0.00111550097787794 0.000230484064476984
  0.0587640920382153 0.000695105395486126 0.000733306051912363 0.000406310208770591 0.000803331381748283 0.000216916670254333
  0.0596455534187885 0.000705531976418418 0.000816340297057359 0.000355056082727763 0.000730309395450865  0.00020577977110078
  0.0605402367200703 0.000716114956064694  0.00191006119919227 0.000792802563313519  0.00076457617770866 0.000199210570176506
