# intensity: 0.962625726263921
# background: 1.77703678336193e-07
#           Q (1/A)             dQ (1/A)                    R                   dR               theory              fresnel
  0.0153875057363614 0.000182014864680675    0.588955628953068   0.0410001900262584    0.523382528959081    0.170563492679287
  0.0156183183224068 0.000184745087650886    0.519661575397489   0.0371057090899898    0.515664271907658    0.158552788646178
  0.0158525930972429 0.000187516263965649     0.54541529848854   0.0372777534982902    0.500766518957101     0.14131810839057
  0.0160903819937015 0.000190329007925134    0.495761576198563   0.0381010028950039    0.479614309743396    0.124301748170805
  0.0163317377236071 0.000193183943044011    0.485985244304323   0.0369101079876187    0.453877904636406    0.109826688179042
  0.0165767137894612 0.000196081702189671     0.47370638335917   0.0354622973627426    0.424104649112407   0.0975860190254608
  0.0168253644963031 0.000199022927722516    0.438506114395696   0.0330494763068406    0.390662580099331   0.0871294530304089
  0.0170777449637476 0.000202008271638353    0.380524804670261   0.0288966514742559    0.354004900984868   0.0781173085973065
  0.0173339111382038 0.000205038395712929    0.333654164145409    0.025649730179969    0.314743285979841   0.0702913651450512
  0.0175939198052769 0.000208113971648623    0.307340755890105   0.0233109392084667    0.273695744344785   0.0634513443458269
   0.017857828602356 0.000211235681223352    0.262243766069572   0.0204600764113435    0.231906999844395   0.0574392556341727
  0.0181256960313914 0.000214404216441702    0.202799197858487   0.0160928970639222    0.190630433333386   0.0521286487319892
  0.0183975814718623 0.000217620279688328    0.174715711349294   0.0141133208641145    0.151262793116325   0.0474170393797036
  0.0186735451939402 0.000220884583883653    0.128612603067544   0.0109766261632449    0.115231203073715   0.0432204501482034
  0.0189536483718493 0.000224197852641907   0.0984257349093145  0.00876961849335422    0.083845298006618   0.0394693982088942
   0.019237953097427 0.000227560820431536   0.0699559505818299  0.00670637129593841   0.0581411996462202   0.0361058956496602
  0.0195265223938884 0.000230974232738009   0.0521272946737903  0.00564419163477787   0.0387519605933491   0.0330811725786632
  0.0198194202297968 0.000234438846229079   0.0289371609620099  0.00378018900413411   0.0258357240288825   0.0303539253527994
  0.0201167115332437 0.000237955428922515   0.0254623466159852  0.00325452195833652   0.0190778804718657   0.0278889523761553
  0.0204184622062424 0.000241524760356353   0.0182260421412371  0.00245680450223909   0.0177627433244767   0.0256560800217718
   0.020724739139336 0.000245147631761698   0.0196402503936732  0.00256394796067236   0.0208925059896849   0.0236293085269487
   0.021035610226426 0.000248824846238124   0.0251608989286909  0.00306045047243398   0.0273231420570093   0.0217861266241861
  0.0213511443798224 0.000252557218931695   0.0317066354225415  0.00327512867745549   0.0358896629564532   0.0201069569856082
  0.0216714115455197 0.000256345577215671   0.0541022651701492  0.00492115862886729   0.0455030297586524    0.018574704073101
  0.0219964827187025 0.000260190760873906   0.0608296250234458  0.00531455643407695   0.0552125513156575   0.0171743828766466
  0.0223264299594831 0.000264093622287014   0.0666817343165316  0.00564128131487925   0.0642366217440257   0.0158928120752235
  0.0226613264088753  0.00026805502662132   0.0721751733930694  0.00476507557098954   0.0719695304755237   0.0147183589010533
  0.0230012463050085 0.000272075852020639   0.0807679113363426  0.00527349033919237   0.0779732549249311   0.0136407257956791
  0.0233462649995836 0.000276156989800949   0.0759912579549316  0.00486335735813745   0.0819619754192332   0.0126507710712251
  0.0236964589745773 0.000280299344647963   0.0963568820295219  0.00597687567850328   0.0837848766865625   0.0117403574129625
   0.024051905859196 0.000284503834817683   0.0814314888414432  0.00502030767944728   0.0834105224220573   0.0109022233091977
  0.0244126844470839 0.000288771392339948   0.0864384285232231  0.00562386690375896   0.0809141428224242   0.0101298734648452
  0.0247788747137902 0.000293102963225047   0.0782755731156867  0.00524659496880296   0.0764676747366492  0.00941748501400568
   0.025150557834497 0.000297499507673423   0.0696923272556148  0.00467019569757439   0.0703313108247029  0.00875982694464162
  0.0255278162020145 0.000301962000288524   0.0650530731751464   0.0044534682010069   0.0628446023107051  0.00815219062236977
  0.0259107334450447 0.000306491430292852   0.0586216336016206  0.00402038082906262   0.0544148266360734  0.00759032967847065
  0.0262993944467204 0.000311088801747245   0.0487341742986672   0.0034616576498828   0.0455004488193003  0.00707040783059709
  0.0266938853634212 0.000315755133773453   0.0337467637058444  0.00261679313619939   0.0365881721716686  0.00658895344946537
  0.0270942936438725 0.000320491460780055     0.02385318547479  0.00201194509930379   0.0281633331424465   0.0061428198833801
  0.0275007080485306 0.000325298832691756   0.0183014032668258  0.00161506423899636   0.0206751336754785   0.0057291507143165
  0.0279132186692585 0.000330178315182132   0.0125700063807027   0.0012624948795398   0.0145000856019399  0.00534534925186726
  0.0283319169492974 0.000335130989909864  0.00964595605983097  0.00106322063805159  0.00990853030709861  0.00498905168044642
  0.0287568957035369 0.000340157954758512  0.00670423043147963 0.000840996264056495  0.00703961723690212  0.00465810336527975
  0.0291882491390899  0.00034526032407989  0.00689159905048125 0.000855221781504936  0.00588931029500707  0.00435053789749757
  0.0296260728761763 0.000350439228941088  0.00621153556506731 0.000828007478926807  0.00631390715792741  0.00406455852093778
  0.0300704639693189 0.000355695817375204   0.0089287103848952  0.00101216143787512   0.0080487482597539  0.00379852163534778
  0.0305215209288587 0.000361031254635832   0.0107388212242309  0.00113759165060364   0.0107390938231876  0.00355092211437137
  0.0309793437427915  0.00036644672345537   0.0142090672791082   0.0014451283353449    0.013978334516919   0.0033203802134979
  0.0314440338989334   0.0003719434243072   0.0179469100255127  0.00163563844925505   0.0173481759948377  0.00310562987422791
  0.0319156944074174 0.000377522575671808   0.0187041143877647  0.00165549075575334   0.0204561107315442  0.00290550825704339
  0.0323944298235287 0.000383185414306885   0.0171921861774916   0.0016055844814599   0.0229668985707657  0.00271894635815264
  0.0328803462708816 0.000388933195521489    0.022633771223139  0.00216832664275182    0.024626332048143  0.00254496058405799
  0.0333735514649448 0.000394767193454311   0.0244578287354563  0.00223544254753445   0.0252767895531523  0.00238264517430319
   0.033874154736919 0.000400688701356125   0.0278455758550301  0.00256644435610947   0.0248647494445577  0.00223116537673455
  0.0343822670579728 0.000406699031876467   0.0210569391772579  0.00203126690506697   0.0234405786065487  0.00208975129162159
  0.0348980010638424 0.000412799517354614    0.018294641988772  0.00177524017069513   0.0211507382178586  0.00195769231133018
     0.0354214710798 0.000418991510114933   0.0150266457411007  0.00151440426992491   0.0182223832405694  0.00183433209117685
   0.035952793145997 0.000425276382766657   0.0141395160265629  0.00149452953310911   0.0149404831454831  0.00171906399482716
  0.0364920850431869 0.000431655528508157  0.00980591712982217    0.001112125027074   0.0116182676678091  0.00161132696431075
  0.0370394663188347  0.00043813036143578  0.00926565401223834  0.00113083766447375  0.00856300733445191  0.00151060177055868
  0.0375950583136173 0.000444702316857316  0.00766832264384178  0.00095663658665415  0.00604061103401804  0.00141640760545123
  0.0381589841883215 0.000451372851610176   0.0045744637164895 0.000729072044850837  0.00424375754109797   0.0013282989808004
  0.0387313689511463 0.000458143444384329  0.00368987196606774 0.000608165276677701  0.00326868609319171  0.00124586290357275
  0.0393123394854135 0.000465015596050093  0.00291708375866983 0.000507963583243614  0.00310494057287269   0.0011687163000586
  0.0399020245776947 0.000471990829990845   0.0041611074092729 0.000676298720623585  0.00364029999467565   0.0010965036646804
  0.0405005549463601 0.000479070692440707  0.00573167633766487 0.000840356324428836  0.00468033165380688  0.00102889491175883
  0.0411080632705555 0.000486256752827318  0.00605725070352921 0.000854212897048563  0.00597927617135274 0.000965583410870042
  0.0417246842196139 0.000493550604119728  0.00818496596385087  0.00106769262345625  0.00727707361704619 0.000906284188469252
  0.0423505544829081 0.000500953863181523  0.00757904377010662  0.00103720229251551  0.00833665937599941 0.000850732280261995
  0.0429858128001517 0.000508468171129246   0.0116100156690549  0.00151621199449136   0.0089761206653208 0.000798681220402552
   0.043630599992154 0.000516095193696185   0.0102185799269577  0.00135192747087667  0.00909150980882068 0.000749901655017024
  0.0442850589920363 0.000523836621601628   0.0085847440474298   0.0012143794487187   0.0086676110724691 0.000704180068807444
  0.0449493348769168 0.000531694170925652  0.00713136822940752 0.000979768212205625  0.00777548707041012 0.000661317614613142
  0.0456235749000706 0.000539669583489537  0.00707362356073849  0.00109319806701618  0.00655716397153429 0.000621129036802971
  0.0463079285235716  0.00054776462724188  0.00590187733645244 0.000931086936501162  0.00519945363694765 0.000583441680261475
  0.0470025474514252 0.000555981096650508  0.00486753809418074 0.000788712150715905  0.00390066967224546  0.00054809457752658
  0.0477075856631966 0.000564320813100265  0.00264983867480903 0.000486375478169458  0.00283562190204686 0.000514937607346781
  0.0484231994481445 0.000572785625296769  0.00260310518791426 0.000596604585777678  0.00212524076925076  0.00048383071856185
  0.0491495474398667 0.000581377409676221   0.0018089659884967 0.000379763935196648  0.00181689332737491 0.000454643213781406
  0.0498867906514647 0.000590098070821364  0.00151629807201127 0.000350097704698574  0.00187959546327036 0.000427253087847491
  0.0506350925112366 0.000598949541883685  0.00373596563553282 0.000802262918134482  0.00221516019754735 0.000401546416527234
  0.0513946188989052  0.00060793378501194  0.00305939681305718 0.000625160042838698  0.00268267817781229 0.000377416791295497
  0.0521655381823887 0.000617052791787119  0.00329763811497248 0.000750965290570536  0.00313067452081278 0.000354764796440083
  0.0529480212551246 0.000626308583663925   0.0037046505752102 0.000844166047746337  0.00342967685706382 0.000333497525058076
  0.0537422415739514 0.000635703212418884  0.00363254251222294 0.000704116059329328  0.00349808712018736 0.000313528130815189
  0.0545483751975607 0.000645238760605168  0.00404446070205481 0.000961319915281785  0.00331597525065267 0.000294775412614024
  0.0553666008255241 0.000654917342014245  0.00400826665212722 0.000966054668731291  0.00292420883759092 0.000277163429564977
   0.056197099837907 0.000664741102144459   0.0020374461060074 0.000524617935984431  0.00240962381306254 0.000260621143877881
  0.0570400563354756 0.000674712218676625  0.00216129719490188 0.000682970287652559  0.00188014081150013 0.000245082089495825
  0.0578956571805077 0.000684832901956775  0.00231595751117839  0.00120231306618683  0.00143619286325156 0.000230484064476984
  0.0587640920382153 0.000695105395486126  0.00293027092273318  0.00101297831375908  0.00114630366147363 0.000216916670254333
  0.0596455534187885 0.000705531976418418 0.000815518373700953 0.000354698598369488  0.00102420760648849  0.00020577977110078
  0.0605402367200703 0.000716114956064694 0.000795057531179878 0.000427373508253764   0.0010025537832244 0.000199210570176506
