# intensity: 1.02483342059336
# background: 0
#           Q (1/A)             dQ (1/A)                    R                   dR               theory              fresnel
  0.0144978652482463 0.000170750582846793      1.0738789181303    0.119648952833878    0.800828439703133    0.393594278724704
    0.01471533322697 0.000173311841589495     1.08354977476604    0.115599961263832    0.787337984556859    0.349620916439109
  0.0149360632253745 0.000175911519213337     0.89100884523407   0.0953769857203546    0.760090696147153    0.292679152703341
  0.0151601041737552 0.000178550192001537    0.788089644403362   0.0820334199984917    0.720080105875715    0.243324070811673
  0.0153875057363615  0.00018122844488156    0.603509761831928   0.0560377295759214     0.67039073598791     0.20594620719518
  0.0156183183224069 0.000183946871554784     0.55410073210337    0.051905997123445    0.612586589693076     0.17695164016429
   0.015852593097243 0.000186706074628106    0.502568438317098   0.0460418830480929    0.548597956207092    0.153751399312698
  0.0160903819937017 0.000189506665747527    0.401567661910278   0.0416366582181591    0.481242892574362    0.134764188087553
  0.0163317377236072  0.00019234926573374    0.367158652445416   0.0373336411171911    0.413990835749332    0.118957429151753
  0.0165767137894613 0.000195234504719746    0.321287675326571   0.0330566950674555    0.350349915738703    0.105619987928198
  0.0168253644963032 0.000198163022290542    0.312571367091773   0.0315964083145348    0.293139058435228   0.0942422777423346
  0.0170777449637478 0.000201135467624901    0.249790481458694   0.0262696170210356    0.243970430538897   0.0844476495614557
   0.017333911138204 0.000204152499639274    0.218778562887065   0.0232658255444795    0.203149446555072   0.0759506758372878
   0.017593919805277 0.000207214787133863    0.183519005675063   0.0198454602147795    0.169965336791561   0.0685305549929318
  0.0178578286023562 0.000210323008940871     0.15245227558044   0.0172536976664342    0.143172540078449   0.0620134935925195
  0.0181256960313915 0.000213477854074984    0.124591061317217   0.0146819926317496    0.121445580379444   0.0562606594675853
  0.0183975814718624 0.000216680021886109    0.111454728929911   0.0131609239172612    0.103681197245849   0.0511597207449514
  0.0186735451939403 0.000219930222214401   0.0893912169327242   0.0111337208216251   0.0891249626636721   0.0466187655927503
  0.0189536483718495 0.000223229175547617   0.0807796472047503   0.0104194701138763    0.077360467230061   0.0425618450808719
  0.0192379530974272 0.000226577613180831   0.0825181279928274   0.0102817604628124   0.0682163542179204   0.0389256484575714
  0.0195265223938886 0.000229976277378543   0.0749554426038155  0.00966316498256961   0.0616407391998283   0.0356569846441311
  0.0198194202297969 0.000233425921539221   0.0559808386444393  0.00746765076496713   0.0575804166619308   0.0327108480898333
  0.0201167115332439  0.00023692731036231   0.0521296753514179  0.00687393202250396   0.0558900014186695   0.0300489150059903
  0.0204184622062425 0.000240481220017744   0.0525894290837029  0.00677945299616709   0.0562842627099337   0.0276383611557345
  0.0207247391393362 0.000244088438318011   0.0527217249828447  0.00643000846146946   0.0583352771167545    0.025450923028878
  0.0210356102264262 0.000247749764892781   0.0715079388829345  0.00813206658478619   0.0615060476778624   0.0234621454171297
  0.0213511443798226 0.000251466011366173   0.0701865128648836  0.00771966834286499   0.0652060408813939   0.0216507732894793
    0.02167141154552 0.000255238001536665   0.0647032282976052  0.00727587806720892    0.068852841426655   0.0199982564817572
  0.0219964827187028 0.000259066571559715   0.0590277216803894  0.00649598435285261   0.0719271229699791   0.0184883433871314
  0.0223264299594833 0.000262952570133111   0.0751961506335633  0.00767981203713762   0.0740133123112097   0.0171067454504721
  0.0226613264088756 0.000266896858685107    0.062864266791493  0.00595977980733042   0.0748234459788263   0.0158408584279561
  0.0230012463050087 0.000270900311565384   0.0741494674784816  0.00654984856156781   0.0742053500199234   0.0146795294853058
  0.0233462649995838 0.000274963816238865   0.0643173864004788  0.00581888924468473   0.0721380602051984   0.0136128615600873
  0.0236964589745776 0.000279088273482448   0.0686154725879228  0.00617667147476342   0.0687177564486436   0.0126320482075229
  0.0240519058591962 0.000283274597584685   0.0620431375070359  0.00565433449461055   0.0641371094435145   0.0117292335294687
  0.0244126844470842 0.000287523716548455   0.0540399135823968  0.00514136631375059   0.0586604284042736   0.0108973928565431
  0.0247788747137904 0.000291836572296682   0.0503054892699906   0.0048624232721066   0.0525966801847219   0.0101302306897096
  0.0251505578344973 0.000296214120881132    0.042882673535321  0.00423407843400152   0.0462723614577898  0.00942209306567741
  0.0255278162020148 0.000300657332694349   0.0439775510659439   0.0043904219563098   0.0400061930756542  0.00876789203174887
   0.025910733445045 0.000305167192684764   0.0364695098161863  0.00384744732396824   0.0340874548045577  0.00816304033121925
  0.0262993944467207 0.000309744700575036   0.0343231951557641   0.0036877181558097   0.0287593438347595  0.00760339473356634
  0.0266938853634215 0.000314390871083661   0.0307900602680764  0.00334783140806181    0.024208027523542  0.00708520671226151
  0.0270942936438728 0.000319106734149916   0.0244377338717061   0.0028030732541832   0.0205572313214596  0.00660507939074581
  0.0275007080485309 0.000323893335162165   0.0180191445091082  0.00228924462566491   0.0178675005106485  0.00615992985447041
  0.0279132186692589 0.000328751735189597    0.015020671953809   0.0020965743932847   0.0161389102555038  0.00574695607207092
  0.0283319169492977 0.000333683011217441   0.0126444392262818  0.00184109855044088   0.0153160529018383  0.00536360778811218
  0.0287568957035372 0.000338688256385703   0.0164702121250396  0.00215606912410649     0.01529452080431  0.00500756084841359
  0.0291882491390903 0.000343768580231488   0.0143878746624603   0.0020428380979731   0.0159286222826078  0.00467669450070544
  0.0296260728761766 0.000348925108934961     0.01828710184803   0.0023543113735589   0.0170404837448493  0.00436907128141358
  0.0300704639693193 0.000354158985568985   0.0217703511399565  0.00253281724853589   0.0184308352097971  0.00408291915623243
   0.030521520928859  0.00035947137035252   0.0208656683461568  0.00247219603288063   0.0198916053653947  0.00381661562983268
  0.0309793437427919 0.000364863440907808   0.0238564503472181  0.00270330842886757   0.0212200445062168  0.00356867358018026
  0.0314440338989338 0.000370336392521425   0.0199922480191718  0.00243203369940638   0.0222336011383482  0.00333772860682511
  0.0319156944074178 0.000375891438409246    0.022591491244243  0.00278040659523063   0.0227843573342993  0.00312252771121649
  0.0323944298235291 0.000381529809985385   0.0177627146189186  0.00237011950454314   0.0227715857410031  0.00292191915148278
   0.032880346270882 0.000387252757135166   0.0225751548542624  0.00281984576100217   0.0221509650288973  0.00273484333488765
  0.0333735514649453 0.000393061548492193   0.0228047296057041  0.00284178440866025   0.0209391652879367   0.0025603246289256
  0.0338741547369194 0.000398957471719576   0.0210135223293936  0.00263884140578422   0.0192128564909044  0.00239746398722806
  0.0343822670579732  0.00040494183379537   0.0153173215393831  0.00205750643383376   0.0171016767333296  0.00224543229951552
  0.0348980010638428   0.0004110159613023   0.0165103119203179  0.00227502856214995   0.0147753110396728   0.0021034643860818
  0.0354214710798005 0.000417181200721835   0.0104296008895228  0.00163290205903533   0.0124255572821521  0.00197085356700855
  0.0359527931459975 0.000423438918732662  0.00873927037735364  0.00153441756884735   0.0102450345271094  0.00184694674471207
  0.0364920850431874 0.000429790502513652  0.00766418126097502  0.00135191918159312  0.00840490062484266  0.00173113994571246
  0.0370394663188352 0.000436237360051357  0.00653560703467088  0.00126328337492139   0.0070344179639191  0.00162287427384937
  0.0375950583136178 0.000442780920452127  0.00526726458303872  0.00112912908857369  0.00620526331441577  0.00152163223268579
   0.038158984188322 0.000449422634258909  0.00843800792927804  0.00147450083240549  0.00592301231659949  0.00142693437965605
  0.0387313689511469 0.000456163973772793   0.0061362679486016  0.00130584330784946  0.00612726474941045  0.00133833627872476
  0.0393123394854141 0.000463006433379385  0.00808368223428312  0.00147149889670495  0.00670058323632497  0.00125542572201237
  0.0399020245776953 0.000469951529880075  0.00903490528439413  0.00155746349886474  0.00748506588870152  0.00117782019408139
  0.0405005549463607 0.000477000802828277  0.00759118186949857  0.00128592755173456  0.00830424173126536  0.00110516455542436
  0.0411080632705561 0.000484155814870701  0.00896093861479855  0.00149519847138424  0.00898726150436298  0.00103712892420306
  0.0417246842196145 0.000491418152093761   0.0110348357937575  0.00177899852543989  0.00939211706207797 0.000973406737501773
  0.0423505544829087 0.000498789424375168   0.0128070467199409  0.00209774992932604  0.00942480370953204 0.000913712975313202
  0.0429858128001523 0.000506271265740795   0.0100829626381229  0.00172072189360414  0.00905183309292404 0.000857782532207313
  0.0436305999921546 0.000513865334726907  0.00861002382921859  0.00151469430824884  0.00830422547759539  0.00080536872316854
  0.0442850589920369 0.000521573314747811  0.00633326774659827  0.00144891749141196  0.00727204157971383 0.000756241911449861
  0.0449493348769175 0.000529396914469028  0.00670669101859666  0.00137518720659148  0.00608968460615604 0.000710188247504405
  0.0456235749000712 0.000537337868186063  0.00513195428500634  0.00115174955189298   0.0049136102621489 0.000667008509134582
  0.0463079285235723 0.000545397936208854  0.00437385363655755  0.00104911784701016  0.00389559264364112 0.000626517033961232
  0.0470025474514259 0.000553578905251987  0.00505464793682318  0.00125821863678964   0.0031559876145645 0.000588540736174707
  0.0477075856631973 0.000561882588830767  0.00248518321035123 0.000690482648311797  0.00276206016529913 0.000552918200298217
  0.0484231994481452 0.000570310827663228  0.00269230350665004 0.000721381704131919  0.00271598928078857 0.000519498845381595
  0.0491495474398674 0.000578865490078177  0.00461469638049428  0.00111633591655871    0.002955496006259 0.000488142153660271
  0.0498867906514654 0.000587548472429349  0.00378121061529389 0.000977550999224876  0.00336743896545125 0.000458716958267546
  0.0506350925112374  0.00059636169951579  0.00540494554992355  0.00139847360059985  0.00381183569568308 0.000431100785085357
   0.051394618898906 0.000605307125008527  0.00527483892849878  0.00135450056936106  0.00415137227208709 0.000405179244265986
  0.0521655381823896 0.000614386731883655  0.00438848177038062  0.00111484452121249  0.00428016171776207 0.000380845467359778
  0.0529480212551254 0.000623602532861909  0.00419359702707686  0.00127997599859298  0.00414556208016609 0.000357999586347024
  0.0537422415739523 0.000632956570854838  0.00330400231468488  0.00100491895657551   0.0037582005984724  0.00033654825119972
  0.0545483751975616 0.000642450919417661  0.00198881308868729 0.000726936112690339  0.00318771390539239 0.000316404182894899
   0.055366600825525 0.000652087683208926  0.00222242976151764 0.000824667159626276   0.0025447560181301 0.000297485759068877
  0.0561970998379079 0.000661868998457059  0.00176489266708942  0.00112778976970475  0.00195307508703201 0.000279716629743984
  0.0570400563354765 0.000671797033433915 0.000458922531787919 0.000440659703781313  0.00151823559445184  0.00026302536077889
  0.0578956571805087 0.000681873988935424 0.000791548288978241 0.000602676098633899  0.00130100368475195 0.000247345102892687
  0.0587640920382163 0.000692102098769455  0.00111996625544877 0.000766932579678364  0.00130036126662519 0.000232767007618155
  0.0596455534187895 0.000702483630250997  0.00159890354982916 0.000957258932238204  0.00142974979756876 0.000220784782385853
  0.0605402367200714 0.000713020884704762  0.00142344545918451  0.00108041698276721  0.00154780754908777 0.000213719418429176
