#      z (A) rho (1e-6/A2) irho (1e-6/A2)
-45.17323495   6.06569559   0.00001298
-45.07323495   6.06565895   0.00001327
-44.97323495   6.06562157   0.00001356
-44.87323495   6.06558344   0.00001386
-44.77323495   6.06554455   0.00001416
-44.67323495   6.06550489   0.00001447
-44.57323495   6.06546444   0.00001479
-44.47323495   6.06542318   0.00001511
-44.37323495   6.06538111   0.00001544
-44.27323495   6.06533820   0.00001577
-44.17323495   6.06529445   0.00001611
-44.07323495   6.06524983   0.00001646
-43.97323495   6.06520435   0.00001682
-43.87323495   6.06515797   0.00001718
-43.77323495   6.06511068   0.00001755
-43.67323495   6.06506248   0.00001792
-43.57323495   6.06501333   0.00001831
-43.47323495   6.06496323   0.00001870
-43.37323495   6.06491217   0.00001910
-43.27323495   6.06486011   0.00001950
-43.17323495   6.06480705   0.00001992
-43.07323495   6.06475298   0.00002034
-42.97323495   6.06469786   0.00002077
-42.87323495   6.06464169   0.00002121
-42.77323495   6.06458445   0.00002165
-42.67323495   6.06452612   0.00002211
-42.57323495   6.06446668   0.00002257
-42.47323495   6.06440612   0.00002304
-42.37323495   6.06434441   0.00002353
-42.27323495   6.06428153   0.00002402
-42.17323495   6.06421747   0.00002452
-42.07323495   6.06415221   0.00002503
-41.97323495   6.06408573   0.00002554
-41.87323495   6.06401800   0.00002607
-41.77323495   6.06394902   0.00002661
-41.67323495   6.06387875   0.00002716
-41.57323495   6.06380717   0.00002772
-41.47323495   6.06373427   0.00002829
-41.37323495   6.06366003   0.00002887
-41.27323495   6.06358442   0.00002946
-41.17323495   6.06350742   0.00003006
-41.07323495   6.06342901   0.00003067
-40.97323495   6.06334916   0.00003129
-40.87323495   6.06326786   0.00003193
-40.77323495   6.06318508   0.00003257
-40.67323495   6.06310080   0.00003323
-40.57323495   6.06301499   0.00003390
-40.47323495   6.06292764   0.00003458
-40.37323495   6.06283871   0.00003527
-40.27323495   6.06274818   0.00003598
-40.17323495   6.06265603   0.00003670
-40.07323495   6.06256223   0.00003743
-39.97323495   6.06246676   0.00003818
-39.87323495   6.06236960   0.00003893
-39.77323495   6.06227071   0.00003971
-39.67323495   6.06217006   0.00004049
-39.57323495   6.06206765   0.00004129
-39.47323495   6.06196343   0.00004210
-39.37323495   6.06185738   0.00004293
-39.27323495   6.06174947   0.00004377
-39.17323495   6.06163967   0.00004463
-39.07323495   6.06152797   0.00004550
-38.97323495   6.06141432   0.00004639
-38.87323495   6.06129870   0.00004729
-38.77323495   6.06118108   0.00004821
-38.67323495   6.06106143   0.00004914
-38.57323495   6.06093973   0.00005009
-38.47323495   6.06081593   0.00005106
-38.37323495   6.06069002   0.00005204
-38.27323495   6.06056196   0.00005304
-38.17323495   6.06043172   0.00005405
-38.07323495   6.06029926   0.00005509
-37.97323495   6.06016457   0.00005614
-37.87323495   6.06002760   0.00005721
-37.77323495   6.05988832   0.00005829
-37.67323495   6.05974670   0.00005940
-37.57323495   6.05960271   0.00006052
-37.47323495   6.05945632   0.00006166
-37.37323495   6.05930748   0.00006283
-37.27323495   6.05915618   0.00006401
-37.17323495   6.05900236   0.00006521
-37.07323495   6.05884600   0.00006643
-36.97323495   6.05868706   0.00006767
-36.87323495   6.05852551   0.00006893
-36.77323495   6.05836131   0.00007021
-36.67323495   6.05819443   0.00007151
-36.57323495   6.05802483   0.00007283
-36.47323495   6.05785247   0.00007418
-36.37323495   6.05767731   0.00007554
-36.27323495   6.05749932   0.00007693
-36.17323495   6.05731846   0.00007834
-36.07323495   6.05713469   0.00007978
-35.97323495   6.05694798   0.00008124
-35.87323495   6.05675827   0.00008272
-35.77323495   6.05656555   0.00008422
-35.67323495   6.05636976   0.00008575
-35.57323495   6.05617086   0.00008730
-35.47323495   6.05596882   0.00008887
-35.37323495   6.05576359   0.00009048
-35.27323495   6.05555514   0.00009210
-35.17323495   6.05534342   0.00009375
-35.07323495   6.05512839   0.00009543
-34.97323495   6.05491000   0.00009714
-34.87323495   6.05468822   0.00009887
-34.77323495   6.05446301   0.00010062
-34.67323495   6.05423431   0.00010241
-34.57323495   6.05400209   0.00010422
-34.47323495   6.05376630   0.00010606
-34.37323495   6.05352690   0.00010793
-34.27323495   6.05328384   0.00010982
-34.17323495   6.05303709   0.00011175
-34.07323495   6.05278658   0.00011370
-33.97323495   6.05253228   0.00011569
-33.87323495   6.05227414   0.00011770
-33.77323495   6.05201212   0.00011974
-33.67323495   6.05174616   0.00012182
-33.57323495   6.05147623   0.00012393
-33.47323495   6.05120227   0.00012606
-33.37323495   6.05092423   0.00012823
-33.27323495   6.05064207   0.00013043
-33.17323495   6.05035574   0.00013267
-33.07323495   6.05006519   0.00013493
-32.97323495   6.04977038   0.00013723
-32.87323495   6.04947124   0.00013957
-32.77323495   6.04916773   0.00014194
-32.67323495   6.04885981   0.00014434
-32.57323495   6.04854742   0.00014677
-32.47323495   6.04823050   0.00014925
-32.37323495   6.04790902   0.00015176
-32.27323495   6.04758291   0.00015430
-32.17323495   6.04725213   0.00015688
-32.07323495   6.04691662   0.00015950
-31.97323495   6.04657633   0.00016215
-31.87323495   6.04623121   0.00016484
-31.77323495   6.04588120   0.00016758
-31.67323495   6.04552626   0.00017034
-31.57323495   6.04516632   0.00017315
-31.47323495   6.04480133   0.00017600
-31.37323495   6.04443124   0.00017889
-31.27323495   6.04405600   0.00018181
-31.17323495   6.04367555   0.00018478
-31.07323495   6.04328982   0.00018779
-30.97323495   6.04289878   0.00019084
-30.87323495   6.04250236   0.00019394
-30.77323495   6.04210050   0.00019707
-30.67323495   6.04169315   0.00020025
-30.57323495   6.04128026   0.00020347
-30.47323495   6.04086176   0.00020673
-30.37323495   6.04043759   0.00021004
-30.27323495   6.04000771   0.00021340
-30.17323495   6.03957205   0.00021680
-30.07323495   6.03913055   0.00022024
-29.97323495   6.03868316   0.00022373
-29.87323495   6.03822982   0.00022727
-29.77323495   6.03777046   0.00023085
-29.67323495   6.03730503   0.00023448
-29.57323495   6.03683347   0.00023816
-29.47323495   6.03635572   0.00024189
-29.37323495   6.03587172   0.00024566
-29.27323495   6.03538141   0.00024949
-29.17323495   6.03488473   0.00025336
-29.07323495   6.03438161   0.00025729
-28.97323495   6.03387201   0.00026126
-28.87323495   6.03335585   0.00026529
-28.77323495   6.03283307   0.00026937
-28.67323495   6.03230362   0.00027350
-28.57323495   6.03176744   0.00027768
-28.47323495   6.03122445   0.00028191
-28.37323495   6.03067460   0.00028620
-28.27323495   6.03011783   0.00029055
-28.17323495   6.02955407   0.00029495
-28.07323495   6.02898327   0.00029940
-27.97323495   6.02840535   0.00030391
-27.87323495   6.02782026   0.00030847
-27.77323495   6.02722793   0.00031309
-27.67323495   6.02662830   0.00031777
-27.57323495   6.02602132   0.00032250
-27.47323495   6.02540690   0.00032730
-27.37323495   6.02478499   0.00033215
-27.27323495   6.02415554   0.00033706
-27.17323495   6.02351846   0.00034203
-27.07323495   6.02287371   0.00034706
-26.97323495   6.02222121   0.00035215
-26.87323495   6.02156090   0.00035730
-26.77323495   6.02089272   0.00036251
-26.67323495   6.02021660   0.00036778
-26.57323495   6.01953248   0.00037312
-26.47323495   6.01884030   0.00037852
-26.37323495   6.01813999   0.00038398
-26.27323495   6.01743149   0.00038951
-26.17323495   6.01671473   0.00039510
-26.07323495   6.01598965   0.00040075
-25.97323495   6.01525619   0.00040648
-25.87323495   6.01451427   0.00041226
-25.77323495   6.01376384   0.00041812
-25.67323495   6.01300484   0.00042404
-25.57323495   6.01223719   0.00043002
-25.47323495   6.01146083   0.00043608
-25.37323495   6.01067571   0.00044220
-25.27323495   6.00988174   0.00044840
-25.17323495   6.00907888   0.00045466
-25.07323495   6.00826706   0.00046099
-24.97323495   6.00744621   0.00046739
-24.87323495   6.00661628   0.00047387
-24.77323495   6.00577718   0.00048041
-24.67323495   6.00492887   0.00048703
-24.57323495   6.00407128   0.00049372
-24.47323495   6.00320435   0.00050048
-24.37323495   6.00232801   0.00050731
-24.27323495   6.00144219   0.00051422
-24.17323495   6.00054685   0.00052121
-24.07323495   5.99964191   0.00052826
-23.97323495   5.99872731   0.00053540
-23.87323495   5.99780299   0.00054261
-23.77323495   5.99686889   0.00054989
-23.67323495   5.99592494   0.00055725
-23.57323495   5.99497109   0.00056469
-23.47323495   5.99400727   0.00057221
-23.37323495   5.99303342   0.00057981
-23.27323495   5.99204949   0.00058748
-23.17323495   5.99105540   0.00059523
-23.07323495   5.99005110   0.00060307
-22.97323495   5.98903653   0.00061098
-22.87323495   5.98801163   0.00061897
-22.77323495   5.98697634   0.00062705
-22.67323495   5.98593060   0.00063520
-22.57323495   5.98487435   0.00064344
-22.47323495   5.98380753   0.00065176
-22.37323495   5.98273009   0.00066016
-22.27323495   5.98164197   0.00066865
-22.17323495   5.98054311   0.00067722
-22.07323495   5.97943345   0.00068587
-21.97323495   5.97831293   0.00069461
-21.87323495   5.97718151   0.00070343
-21.77323495   5.97603912   0.00071234
-21.67323495   5.97488571   0.00072134
-21.57323495   5.97372122   0.00073042
-21.47323495   5.97254560   0.00073959
-21.37323495   5.97135880   0.00074884
-21.27323495   5.97016075   0.00075818
-21.17323495   5.96895142   0.00076761
-21.07323495   5.96773074   0.00077713
-20.97323495   5.96649867   0.00078674
-20.87323495   5.96525515   0.00079644
-20.77323495   5.96400013   0.00080622
-20.67323495   5.96273356   0.00081610
-20.57323495   5.96145539   0.00082607
-20.47323495   5.96016558   0.00083612
-20.37323495   5.95886406   0.00084627
-20.27323495   5.95755081   0.00085651
-20.17323495   5.95622576   0.00086685
-20.07323495   5.95488887   0.00087727
-19.97323495   5.95354009   0.00088779
-19.87323495   5.95217939   0.00089840
-19.77323495   5.95080670   0.00090910
-19.67323495   5.94942200   0.00091990
-19.57323495   5.94802523   0.00093079
-19.47323495   5.94661636   0.00094177
-19.37323495   5.94519533   0.00095285
-19.27323495   5.94376212   0.00096403
-19.17323495   5.94231667   0.00097530
-19.07323495   5.94085895   0.00098666
-18.97323495   5.93938892   0.00099813
-18.87323495   5.93790654   0.00100968
-18.77323495   5.93641178   0.00102134
-18.67323495   5.93490459   0.00103309
-18.57323495   5.93338493   0.00104494
-18.47323495   5.93185279   0.00105688
-18.37323495   5.93030811   0.00106892
-18.27323495   5.92875086   0.00108107
-18.17323495   5.92718102   0.00109330
-18.07323495   5.92559855   0.00110564
-17.97323495   5.92400342   0.00111808
-17.87323495   5.92239560   0.00113061
-17.77323495   5.92077506   0.00114325
-17.67323495   5.91914177   0.00115598
-17.57323495   5.91749571   0.00116881
-17.47323495   5.91583684   0.00118174
-17.37323495   5.91416514   0.00119477
-17.27323495   5.91248058   0.00120791
-17.17323495   5.91078315   0.00122114
-17.07323495   5.90907282   0.00123447
-16.97323495   5.90734957   0.00124790
-16.87323495   5.90561337   0.00126144
-16.77323495   5.90386421   0.00127507
-16.67323495   5.90210206   0.00128881
-16.57323495   5.90032692   0.00130264
-16.47323495   5.89853876   0.00131658
-16.37323495   5.89673756   0.00133062
-16.27323495   5.89492331   0.00134476
-16.17323495   5.89309601   0.00135901
-16.07323495   5.89125562   0.00137335
-15.97323495   5.88940215   0.00138780
-15.87323495   5.88753558   0.00140235
-15.77323495   5.88565591   0.00141700
-15.67323495   5.88376312   0.00143175
-15.57323495   5.88185720   0.00144660
-15.47323495   5.87993816   0.00146156
-15.37323495   5.87800598   0.00147662
-15.27323495   5.87606066   0.00149178
-15.17323495   5.87410221   0.00150704
-15.07323495   5.87213060   0.00152241
-14.97323495   5.87014586   0.00153787
-14.87323495   5.86814797   0.00155344
-14.77323495   5.86613694   0.00156911
-14.67323495   5.86411277   0.00158489
-14.57323495   5.86207547   0.00160076
-14.47323495   5.86002504   0.00161674
-14.37323495   5.85796148   0.00163282
-14.27323495   5.85588481   0.00164900
-14.17323495   5.85379504   0.00166529
-14.07323495   5.85169217   0.00168167
-13.97323495   5.84957621   0.00169816
-13.87323495   5.84744719   0.00171475
-13.77323495   5.84530510   0.00173144
-13.67323495   5.84314997   0.00174823
-13.57323495   5.84098182   0.00176512
-13.47323495   5.83880066   0.00178212
-13.37323495   5.83660650   0.00179921
-13.27323495   5.83439938   0.00181641
-13.17323495   5.83217931   0.00183370
-13.07323495   5.82994631   0.00185110
-12.97323495   5.82770041   0.00186860
-12.87323495   5.82544163   0.00188619
-12.77323495   5.82317001   0.00190389
-12.67323495   5.82088556   0.00192168
-12.57323495   5.81858832   0.00193958
-12.47323495   5.81627831   0.00195757
-12.37323495   5.81395557   0.00197567
-12.27323495   5.81162014   0.00199386
-12.17323495   5.80927204   0.00201215
-12.07323495   5.80691131   0.00203053
-11.97323495   5.80453799   0.00204902
-11.87323495   5.80215212   0.00206760
-11.77323495   5.79975373   0.00208628
-11.67323495   5.79734288   0.00210506
-11.57323495   5.79491959   0.00212393
-11.47323495   5.79248391   0.00214290
-11.37323495   5.79003589   0.00216196
-11.27323495   5.78757558   0.00218112
-11.17323495   5.78510302   0.00220038
-11.07323495   5.78261825   0.00221973
-10.97323495   5.78012134   0.00223917
-10.87323495   5.77761233   0.00225871
-10.77323495   5.77509128   0.00227834
-10.67323495   5.77255823   0.00229806
-10.57323495   5.77001325   0.00231787
-10.47323495   5.76745639   0.00233778
-10.37323495   5.76488770   0.00235778
-10.27323495   5.76230726   0.00237787
-10.17323495   5.75971512   0.00239805
-10.07323495   5.75711133   0.00241832
 -9.97323495   5.75449598   0.00243868
 -9.87323495   5.75186911   0.00245913
 -9.77323495   5.74923079   0.00247967
 -9.67323495   5.74658110   0.00250029
 -9.57323495   5.74392010   0.00252100
 -9.47323495   5.74124786   0.00254180
 -9.37323495   5.73856446   0.00256269
 -9.27323495   5.73586995   0.00258366
 -9.17323495   5.73316443   0.00260472
 -9.07323495   5.73044796   0.00262586
 -8.97323495   5.72772062   0.00264708
 -8.87323495   5.72498249   0.00266839
 -8.77323495   5.72223364   0.00268978
 -8.67323495   5.71947416   0.00271125
 -8.57323495   5.71670413   0.00273281
 -8.47323495   5.71392362   0.00275444
 -8.37323495   5.71113273   0.00277616
 -8.27323495   5.70833155   0.00279795
 -8.17323495   5.70552014   0.00281982
 -8.07323495   5.70269861   0.00284178
 -7.97323495   5.69986704   0.00286380
 -7.87323495   5.69702553   0.00288591
 -7.77323495   5.69417415   0.00290809
 -7.67323495   5.69131302   0.00293034
 -7.57323495   5.68844221   0.00295267
 -7.47323495   5.68556183   0.00297508
 -7.37323495   5.68267196   0.00299755
 -7.27323495   5.67977272   0.00302010
 -7.17323495   5.67686418   0.00304272
 -7.07323495   5.67394647   0.00306541
 -6.97323495   5.67101967   0.00308817
 -6.87323495   5.66808388   0.00311100
 -6.77323495   5.66513922   0.00313389
 -6.67323495   5.66218578   0.00315686
 -6.57323495   5.65922367   0.00317989
 -6.47323495   5.65625299   0.00320298
 -6.37323495   5.65327385   0.00322614
 -6.27323495   5.65028637   0.00324936
 -6.17323495   5.64729064   0.00327265
 -6.07323495   5.64428679   0.00329600
 -5.97323495   5.64127491   0.00331941
 -5.87323495   5.63825513   0.00334288
 -5.77323495   5.63522756   0.00336641
 -5.67323495   5.63219230   0.00339000
 -5.57323495   5.62914948   0.00341364
 -5.47323495   5.62609922   0.00343734
 -5.37323495   5.62304163   0.00346110
 -5.27323495   5.61997682   0.00348491
 -5.17323495   5.61690492   0.00350878
 -5.07323495   5.61382605   0.00353270
 -4.97323495   5.61074033   0.00355667
 -4.87323495   5.60764787   0.00358069
 -4.77323495   5.60454882   0.00360476
 -4.67323495   5.60144327   0.00362888
 -4.57323495   5.59833137   0.00365305
 -4.47323495   5.59521323   0.00367726
 -4.37323495   5.59208899   0.00370153
 -4.27323495   5.58895877   0.00372583
 -4.17323495   5.58582269   0.00375018
 -4.07323495   5.58268089   0.00377457
 -3.97323495   5.57953349   0.00379901
 -3.87323495   5.57638063   0.00382348
 -3.77323495   5.57322243   0.00384800
 -3.67323495   5.57005903   0.00387255
 -3.57323495   5.56689055   0.00389714
 -3.47323495   5.56371714   0.00392177
 -3.37323495   5.56053892   0.00394643
 -3.27323495   5.55735603   0.00397113
 -3.17323495   5.55416861   0.00399586
 -3.07323495   5.55097678   0.00402063
 -2.97323495   5.54778069   0.00404542
 -2.87323495   5.54458047   0.00407024
 -2.77323495   5.54137625   0.00409510
 -2.67323495   5.53816819   0.00411998
 -2.57323495   5.53495640   0.00414489
 -2.47323495   5.53174104   0.00416982
 -2.37323495   5.52852224   0.00419478
 -2.27323495   5.52530014   0.00421976
 -2.17323495   5.52207488   0.00424477
 -2.07323495   5.51884661   0.00426979
 -1.97323495   5.51561545   0.00429484
 -1.87323495   5.51238156   0.00431991
 -1.77323495   5.50914507   0.00434499
 -1.67323495   5.50590613   0.00437009
 -1.57323495   5.50266488   0.00439520
 -1.47323495   5.49942147   0.00442033
 -1.37323495   5.49617603   0.00444548
 -1.27323495   5.49292870   0.00447063
 -1.17323495   5.48967964   0.00449580
 -1.07323495   5.48642899   0.00452097
 -0.97323495   5.48317688   0.00454616
 -0.87323495   5.47992347   0.00457135
 -0.77323495   5.47666890   0.00459655
 -0.67323495   5.47341331   0.00462175
 -0.57323495   5.47015685   0.00464696
 -0.47323495   5.46689967   0.00467217
 -0.37323495   5.46364190   0.00469739
 -0.27323495   5.46038370   0.00472260
 -0.17323495   5.45712520   0.00474781
 -0.07323495   5.45386656   0.00477302
  0.02676505   5.45060792   0.00479823
  0.12676505   5.44734943   0.00482344
  0.22676505   5.44409122   0.00484864
  0.32676505   5.44083345   0.00487383
  0.42676505   5.43757627   0.00489902
  0.52676505   5.43431981   0.00492419
  0.62676505   5.43106422   0.00494936
  0.72676505   5.42780965   0.00497452
  0.82676505   5.42455625   0.00499966
  0.92676505   5.42130415   0.00502479
  1.02676505   5.41805350   0.00504991
  1.12676505   5.41480445   0.00507501
  1.22676505   5.41155714   0.00510010
  1.32676505   5.40831172   0.00512516
  1.42676505   5.40506833   0.00515021
  1.52676505   5.40182711   0.00517524
  1.62676505   5.39858821   0.00520024
  1.72676505   5.39535178   0.00522523
  1.82676505   5.39211794   0.00525019
  1.92676505   5.38888685   0.00527512
  2.02676505   5.38565866   0.00530003
  2.12676505   5.38243349   0.00532491
  2.22676505   5.37921150   0.00534977
  2.32676505   5.37599282   0.00537459
  2.42676505   5.37277760   0.00539939
  2.52676505   5.36956597   0.00542415
  2.62676505   5.36635808   0.00544888
  2.72676505   5.36315407   0.00547358
  2.82676505   5.35995407   0.00549824
  2.92676505   5.35675822   0.00552287
  3.02676505   5.35356667   0.00554746
  3.12676505   5.35037955   0.00557201
  3.22676505   5.34719699   0.00559652
  3.32676505   5.34401914   0.00562100
  3.42676505   5.34084612   0.00564543
  3.52676505   5.33767808   0.00566982
  3.62676505   5.33451516   0.00569416
  3.72676505   5.33135747   0.00571846
  3.82676505   5.32820516   0.00574272
  3.92676505   5.32505837   0.00576693
  4.02676505   5.32191721   0.00579109
  4.12676505   5.31878183   0.00581520
  4.22676505   5.31565236   0.00583926
  4.32676505   5.31252892   0.00586327
  4.42676505   5.30941165   0.00588723
  4.52676505   5.30630067   0.00591114
  4.62676505   5.30319611   0.00593500
  4.72676505   5.30009810   0.00595879
  4.82676505   5.29700676   0.00598254
  4.92676505   5.29392223   0.00600622
  5.02676505   5.29084462   0.00602985
  5.12676505   5.28777406   0.00605342
  5.22676505   5.28471067   0.00607694
  5.32676505   5.28165457   0.00610039
  5.42676505   5.27860589   0.00612378
  5.52676505   5.27556475   0.00614710
  5.62676505   5.27253126   0.00617037
  5.72676505   5.26950555   0.00619357
  5.82676505   5.26648772   0.00621670
